'Elapsed time','MLII','V5'
'hh:mm:ss.mmm','mV','mV'
'2:00.000',-0.365,-0.255
'2:00.003',-0.370,-0.265
'2:00.006',-0.385,-0.280
'2:00.008',-0.380,-0.255
'2:00.011',-0.375,-0.260
'2:00.014',-0.355,-0.245
'2:00.017',-0.355,-0.245
'2:00.019',-0.370,-0.250
'2:00.022',-0.370,-0.250
'2:00.025',-0.385,-0.255
'2:00.028',-0.385,-0.245
'2:00.031',-0.360,-0.260
'2:00.033',-0.370,-0.255
'2:00.036',-0.360,-0.265
'2:00.039',-0.370,-0.270
'2:00.042',-0.375,-0.260
'2:00.044',-0.370,-0.245
'2:00.047',-0.360,-0.245
'2:00.050',-0.360,-0.250
'2:00.053',-0.370,-0.270
'2:00.056',-0.365,-0.270
'2:00.058',-0.380,-0.270
'2:00.061',-0.360,-0.245
'2:00.064',-0.355,-0.245
'2:00.067',-0.350,-0.250
'2:00.069',-0.365,-0.270
'2:00.072',-0.360,-0.270
'2:00.075',-0.355,-0.270
'2:00.078',-0.340,-0.270
'2:00.081',-0.315,-0.260
'2:00.083',-0.320,-0.260
'2:00.086',-0.310,-0.265
'2:00.089',-0.315,-0.270
'2:00.092',-0.310,-0.260
'2:00.094',-0.295,-0.250
'2:00.097',-0.290,-0.240
'2:00.100',-0.285,-0.240
'2:00.103',-0.275,-0.240
'2:00.106',-0.270,-0.235
'2:00.108',-0.270,-0.225
'2:00.111',-0.255,-0.215
'2:00.114',-0.255,-0.215
'2:00.117',-0.260,-0.220
'2:00.119',-0.265,-0.235
'2:00.122',-0.275,-0.230
'2:00.125',-0.280,-0.210
'2:00.128',-0.280,-0.195
'2:00.131',-0.280,-0.180
'2:00.133',-0.280,-0.190
'2:00.136',-0.275,-0.210
'2:00.139',-0.285,-0.210
'2:00.142',-0.290,-0.215
'2:00.144',-0.285,-0.205
'2:00.147',-0.260,-0.195
'2:00.150',-0.250,-0.205
'2:00.153',-0.235,-0.220
'2:00.156',-0.250,-0.230
'2:00.158',-0.280,-0.225
'2:00.161',-0.305,-0.230
'2:00.164',-0.320,-0.220
'2:00.167',-0.320,-0.225
'2:00.169',-0.345,-0.240
'2:00.172',-0.360,-0.240
'2:00.175',-0.375,-0.245
'2:00.178',-0.370,-0.245
'2:00.181',-0.370,-0.235
'2:00.183',-0.370,-0.250
'2:00.186',-0.375,-0.260
'2:00.189',-0.375,-0.270
'2:00.192',-0.385,-0.260
'2:00.194',-0.380,-0.245
'2:00.197',-0.375,-0.240
'2:00.200',-0.380,-0.260
'2:00.203',-0.385,-0.260
'2:00.206',-0.395,-0.265
'2:00.208',-0.400,-0.255
'2:00.211',-0.390,-0.260
'2:00.214',-0.375,-0.235
'2:00.217',-0.375,-0.245
'2:00.219',-0.375,-0.245
'2:00.222',-0.385,-0.260
'2:00.225',-0.390,-0.240
'2:00.228',-0.375,-0.240
'2:00.231',-0.360,-0.245
'2:00.233',-0.370,-0.245
'2:00.236',-0.370,-0.250
'2:00.239',-0.380,-0.245
'2:00.242',-0.400,-0.255
'2:00.244',-0.390,-0.245
'2:00.247',-0.385,-0.255
'2:00.250',-0.390,-0.270
'2:00.253',-0.415,-0.305
'2:00.256',-0.450,-0.330
'2:00.258',-0.490,-0.350
'2:00.261',-0.510,-0.360
'2:00.264',-0.515,-0.390
'2:00.267',-0.535,-0.385
'2:00.269',-0.575,-0.340
'2:00.272',-0.605,-0.240
'2:00.275',-0.560,-0.090
'2:00.278',-0.440,0.020
'2:00.281',-0.295,0.135
'2:00.283',-0.135,0.240
'2:00.286',0.045,0.340
'2:00.289',0.285,0.455
'2:00.292',0.565,0.585
'2:00.294',0.790,0.650
'2:00.297',0.910,0.580
'2:00.300',0.895,0.290
'2:00.303',0.685,-0.070
'2:00.306',0.295,-0.310
'2:00.308',-0.140,-0.345
'2:00.311',-0.425,-0.295
'2:00.314',-0.515,-0.270
'2:00.317',-0.500,-0.270
'2:00.319',-0.450,-0.275
'2:00.322',-0.430,-0.270
'2:00.325',-0.415,-0.270
'2:00.328',-0.415,-0.275
'2:00.331',-0.400,-0.280
'2:00.333',-0.400,-0.275
'2:00.336',-0.405,-0.295
'2:00.339',-0.425,-0.300
'2:00.342',-0.420,-0.290
'2:00.344',-0.430,-0.280
'2:00.347',-0.415,-0.280
'2:00.350',-0.415,-0.285
'2:00.353',-0.415,-0.295
'2:00.356',-0.425,-0.300
'2:00.358',-0.430,-0.300
'2:00.361',-0.415,-0.285
'2:00.364',-0.405,-0.275
'2:00.367',-0.400,-0.270
'2:00.369',-0.410,-0.290
'2:00.372',-0.420,-0.300
'2:00.375',-0.435,-0.290
'2:00.378',-0.420,-0.280
'2:00.381',-0.415,-0.275
'2:00.383',-0.415,-0.280
'2:00.386',-0.425,-0.280
'2:00.389',-0.430,-0.275
'2:00.392',-0.425,-0.285
'2:00.394',-0.420,-0.275
'2:00.397',-0.400,-0.270
'2:00.400',-0.410,-0.270
'2:00.403',-0.420,-0.275
'2:00.406',-0.430,-0.285
'2:00.408',-0.430,-0.285
'2:00.411',-0.420,-0.280
'2:00.414',-0.410,-0.265
'2:00.417',-0.400,-0.275
'2:00.419',-0.415,-0.280
'2:00.422',-0.420,-0.290
'2:00.425',-0.420,-0.285
'2:00.428',-0.420,-0.280
'2:00.431',-0.415,-0.275
'2:00.433',-0.410,-0.275
'2:00.436',-0.415,-0.285
'2:00.439',-0.415,-0.295
'2:00.442',-0.415,-0.295
'2:00.444',-0.410,-0.280
'2:00.447',-0.400,-0.280
'2:00.450',-0.405,-0.280
'2:00.453',-0.420,-0.290
'2:00.456',-0.415,-0.290
'2:00.458',-0.420,-0.300
'2:00.461',-0.405,-0.285
'2:00.464',-0.400,-0.285
'2:00.467',-0.420,-0.300
'2:00.469',-0.415,-0.295
'2:00.472',-0.415,-0.305
'2:00.475',-0.410,-0.310
'2:00.478',-0.410,-0.305
'2:00.481',-0.405,-0.295
'2:00.483',-0.410,-0.315
'2:00.486',-0.400,-0.315
'2:00.489',-0.410,-0.335
'2:00.492',-0.420,-0.335
'2:00.494',-0.405,-0.320
'2:00.497',-0.390,-0.320
'2:00.500',-0.405,-0.310
'2:00.503',-0.395,-0.325
'2:00.506',-0.395,-0.340
'2:00.508',-0.405,-0.335
'2:00.511',-0.395,-0.325
'2:00.514',-0.380,-0.320
'2:00.517',-0.390,-0.340
'2:00.519',-0.400,-0.340
'2:00.522',-0.405,-0.360
'2:00.525',-0.415,-0.365
'2:00.528',-0.410,-0.365
'2:00.531',-0.390,-0.365
'2:00.533',-0.405,-0.380
'2:00.536',-0.405,-0.390
'2:00.539',-0.410,-0.400
'2:00.542',-0.420,-0.390
'2:00.544',-0.420,-0.400
'2:00.547',-0.415,-0.400
'2:00.550',-0.420,-0.415
'2:00.553',-0.430,-0.430
'2:00.556',-0.435,-0.445
'2:00.558',-0.440,-0.420
'2:00.561',-0.430,-0.410
'2:00.564',-0.430,-0.415
'2:00.567',-0.425,-0.420
'2:00.569',-0.420,-0.435
'2:00.572',-0.435,-0.435
'2:00.575',-0.445,-0.430
'2:00.578',-0.425,-0.415
'2:00.581',-0.410,-0.400
'2:00.583',-0.420,-0.395
'2:00.586',-0.415,-0.395
'2:00.589',-0.415,-0.390
'2:00.592',-0.405,-0.365
'2:00.594',-0.400,-0.350
'2:00.597',-0.375,-0.320
'2:00.600',-0.365,-0.310
'2:00.603',-0.360,-0.305
'2:00.606',-0.370,-0.305
'2:00.608',-0.360,-0.290
'2:00.611',-0.345,-0.255
'2:00.614',-0.325,-0.255
'2:00.617',-0.325,-0.255
'2:00.619',-0.335,-0.265
'2:00.622',-0.320,-0.245
'2:00.625',-0.320,-0.245
'2:00.628',-0.310,-0.220
'2:00.631',-0.300,-0.215
'2:00.633',-0.295,-0.210
'2:00.636',-0.300,-0.225
'2:00.639',-0.310,-0.225
'2:00.642',-0.305,-0.225
'2:00.644',-0.290,-0.215
'2:00.647',-0.290,-0.210
'2:00.650',-0.295,-0.210
'2:00.653',-0.305,-0.215
'2:00.656',-0.310,-0.225
'2:00.658',-0.310,-0.220
'2:00.661',-0.300,-0.215
'2:00.664',-0.290,-0.215
'2:00.667',-0.290,-0.210
'2:00.669',-0.300,-0.230
'2:00.672',-0.320,-0.230
'2:00.675',-0.310,-0.230
'2:00.678',-0.285,-0.220
'2:00.681',-0.295,-0.215
'2:00.683',-0.295,-0.220
'2:00.686',-0.305,-0.225
'2:00.689',-0.310,-0.240
'2:00.692',-0.305,-0.230
'2:00.694',-0.310,-0.230
'2:00.697',-0.310,-0.225
'2:00.700',-0.300,-0.225
'2:00.703',-0.305,-0.230
'2:00.706',-0.310,-0.250
'2:00.708',-0.315,-0.235
'2:00.711',-0.320,-0.235
'2:00.714',-0.310,-0.230
'2:00.717',-0.310,-0.225
'2:00.719',-0.315,-0.250
'2:00.722',-0.325,-0.250
'2:00.725',-0.340,-0.245
'2:00.728',-0.320,-0.255
'2:00.731',-0.320,-0.230
'2:00.733',-0.325,-0.250
'2:00.736',-0.330,-0.265
'2:00.739',-0.330,-0.275
'2:00.742',-0.345,-0.265
'2:00.744',-0.315,-0.250
'2:00.747',-0.320,-0.240
'2:00.750',-0.315,-0.245
'2:00.753',-0.320,-0.260
'2:00.756',-0.335,-0.255
'2:00.758',-0.340,-0.265
'2:00.761',-0.330,-0.255
'2:00.764',-0.330,-0.260
'2:00.767',-0.320,-0.265
'2:00.769',-0.325,-0.275
'2:00.772',-0.335,-0.275
'2:00.775',-0.335,-0.255
'2:00.778',-0.330,-0.250
'2:00.781',-0.325,-0.245
'2:00.783',-0.335,-0.255
'2:00.786',-0.340,-0.260
'2:00.789',-0.345,-0.280
'2:00.792',-0.345,-0.290
'2:00.794',-0.340,-0.270
'2:00.797',-0.330,-0.265
'2:00.800',-0.335,-0.265
'2:00.803',-0.340,-0.270
'2:00.806',-0.345,-0.275
'2:00.808',-0.355,-0.270
'2:00.811',-0.345,-0.260
'2:00.814',-0.330,-0.260
'2:00.817',-0.335,-0.260
'2:00.819',-0.340,-0.275
'2:00.822',-0.350,-0.295
'2:00.825',-0.345,-0.270
'2:00.828',-0.345,-0.255
'2:00.831',-0.335,-0.255
'2:00.833',-0.350,-0.265
'2:00.836',-0.340,-0.275
'2:00.839',-0.355,-0.270
'2:00.842',-0.350,-0.265
'2:00.844',-0.330,-0.260
'2:00.847',-0.335,-0.260
'2:00.850',-0.340,-0.255
'2:00.853',-0.325,-0.265
'2:00.856',-0.335,-0.275
'2:00.858',-0.340,-0.270
'2:00.861',-0.330,-0.265
'2:00.864',-0.325,-0.245
'2:00.867',-0.330,-0.250
'2:00.869',-0.320,-0.260
'2:00.872',-0.335,-0.255
'2:00.875',-0.345,-0.260
'2:00.878',-0.335,-0.250
'2:00.881',-0.325,-0.245
'2:00.883',-0.320,-0.255
'2:00.886',-0.340,-0.265
'2:00.889',-0.350,-0.250
'2:00.892',-0.345,-0.255
'2:00.894',-0.335,-0.250
'2:00.897',-0.320,-0.235
'2:00.900',-0.325,-0.250
'2:00.903',-0.325,-0.255
'2:00.906',-0.320,-0.275
'2:00.908',-0.325,-0.275
'2:00.911',-0.300,-0.255
'2:00.914',-0.285,-0.255
'2:00.917',-0.270,-0.255
'2:00.919',-0.275,-0.250
'2:00.922',-0.280,-0.265
'2:00.925',-0.275,-0.250
'2:00.928',-0.255,-0.235
'2:00.931',-0.240,-0.240
'2:00.933',-0.230,-0.230
'2:00.936',-0.230,-0.235
'2:00.939',-0.225,-0.235
'2:00.942',-0.225,-0.220
'2:00.944',-0.220,-0.215
'2:00.947',-0.210,-0.205
'2:00.950',-0.215,-0.205
'2:00.953',-0.230,-0.215
'2:00.956',-0.235,-0.235
'2:00.958',-0.245,-0.220
'2:00.961',-0.240,-0.195
'2:00.964',-0.245,-0.175
'2:00.967',-0.230,-0.185
'2:00.969',-0.240,-0.190
'2:00.972',-0.265,-0.215
'2:00.975',-0.265,-0.200
'2:00.978',-0.240,-0.185
'2:00.981',-0.220,-0.190
'2:00.983',-0.200,-0.205
'2:00.986',-0.210,-0.200
'2:00.989',-0.245,-0.215
'2:00.992',-0.275,-0.225
'2:00.994',-0.285,-0.220
'2:00.997',-0.280,-0.225
'2:01.000',-0.300,-0.230
'2:01.003',-0.330,-0.230
'2:01.006',-0.340,-0.245
'2:01.008',-0.350,-0.235
'2:01.011',-0.345,-0.240
'2:01.014',-0.335,-0.240
'2:01.017',-0.335,-0.240
'2:01.019',-0.335,-0.245
'2:01.022',-0.345,-0.260
'2:01.025',-0.360,-0.240
'2:01.028',-0.350,-0.230
'2:01.031',-0.340,-0.230
'2:01.033',-0.335,-0.230
'2:01.036',-0.350,-0.255
'2:01.039',-0.350,-0.255
'2:01.042',-0.355,-0.250
'2:01.044',-0.350,-0.245
'2:01.047',-0.345,-0.245
'2:01.050',-0.355,-0.240
'2:01.053',-0.345,-0.250
'2:01.056',-0.360,-0.255
'2:01.058',-0.365,-0.250
'2:01.061',-0.355,-0.240
'2:01.064',-0.350,-0.230
'2:01.067',-0.345,-0.240
'2:01.069',-0.360,-0.255
'2:01.072',-0.370,-0.265
'2:01.075',-0.375,-0.280
'2:01.078',-0.380,-0.305
'2:01.081',-0.400,-0.325
'2:01.083',-0.445,-0.355
'2:01.086',-0.480,-0.390
'2:01.089',-0.510,-0.410
'2:01.092',-0.535,-0.385
'2:01.094',-0.570,-0.285
'2:01.097',-0.550,-0.150
'2:01.100',-0.470,-0.015
'2:01.103',-0.345,0.065
'2:01.106',-0.215,0.155
'2:01.108',-0.055,0.265
'2:01.111',0.165,0.395
'2:01.114',0.445,0.505
'2:01.117',0.705,0.600
'2:01.119',0.850,0.625
'2:01.122',0.890,0.455
'2:01.125',0.810,0.120
'2:01.128',0.530,-0.180
'2:01.131',0.145,-0.320
'2:01.133',-0.230,-0.310
'2:01.136',-0.455,-0.295
'2:01.139',-0.510,-0.305
'2:01.142',-0.470,-0.280
'2:01.144',-0.425,-0.265
'2:01.147',-0.385,-0.265
'2:01.150',-0.390,-0.275
'2:01.153',-0.380,-0.295
'2:01.156',-0.395,-0.290
'2:01.158',-0.395,-0.295
'2:01.161',-0.390,-0.280
'2:01.164',-0.380,-0.280
'2:01.167',-0.390,-0.290
'2:01.169',-0.385,-0.280
'2:01.172',-0.390,-0.295
'2:01.175',-0.405,-0.285
'2:01.178',-0.395,-0.280
'2:01.181',-0.390,-0.280
'2:01.183',-0.380,-0.285
'2:01.186',-0.390,-0.285
'2:01.189',-0.400,-0.290
'2:01.192',-0.405,-0.285
'2:01.194',-0.390,-0.275
'2:01.197',-0.375,-0.270
'2:01.200',-0.375,-0.275
'2:01.203',-0.380,-0.280
'2:01.206',-0.385,-0.285
'2:01.208',-0.395,-0.280
'2:01.211',-0.390,-0.275
'2:01.214',-0.380,-0.255
'2:01.217',-0.385,-0.255
'2:01.219',-0.380,-0.285
'2:01.222',-0.385,-0.290
'2:01.225',-0.390,-0.275
'2:01.228',-0.380,-0.255
'2:01.231',-0.380,-0.265
'2:01.233',-0.365,-0.255
'2:01.236',-0.375,-0.270
'2:01.239',-0.385,-0.285
'2:01.242',-0.380,-0.270
'2:01.244',-0.380,-0.245
'2:01.247',-0.365,-0.250
'2:01.250',-0.365,-0.265
'2:01.253',-0.375,-0.275
'2:01.256',-0.380,-0.295
'2:01.258',-0.390,-0.275
'2:01.261',-0.385,-0.270
'2:01.264',-0.380,-0.265
'2:01.267',-0.375,-0.265
'2:01.269',-0.375,-0.270
'2:01.272',-0.380,-0.275
'2:01.275',-0.380,-0.275
'2:01.278',-0.375,-0.265
'2:01.281',-0.370,-0.270
'2:01.283',-0.365,-0.265
'2:01.286',-0.375,-0.275
'2:01.289',-0.385,-0.280
'2:01.292',-0.375,-0.275
'2:01.294',-0.370,-0.285
'2:01.297',-0.365,-0.280
'2:01.300',-0.355,-0.290
'2:01.303',-0.360,-0.290
'2:01.306',-0.380,-0.295
'2:01.308',-0.375,-0.300
'2:01.311',-0.375,-0.285
'2:01.314',-0.360,-0.285
'2:01.317',-0.355,-0.300
'2:01.319',-0.365,-0.305
'2:01.322',-0.370,-0.325
'2:01.325',-0.375,-0.315
'2:01.328',-0.375,-0.300
'2:01.331',-0.360,-0.315
'2:01.333',-0.370,-0.315
'2:01.336',-0.360,-0.325
'2:01.339',-0.365,-0.355
'2:01.342',-0.380,-0.350
'2:01.344',-0.375,-0.360
'2:01.347',-0.365,-0.350
'2:01.350',-0.370,-0.350
'2:01.353',-0.380,-0.365
'2:01.356',-0.380,-0.375
'2:01.358',-0.385,-0.385
'2:01.361',-0.380,-0.385
'2:01.364',-0.375,-0.390
'2:01.367',-0.380,-0.380
'2:01.369',-0.385,-0.400
'2:01.372',-0.385,-0.405
'2:01.375',-0.390,-0.415
'2:01.378',-0.390,-0.390
'2:01.381',-0.375,-0.390
'2:01.383',-0.380,-0.390
'2:01.386',-0.390,-0.400
'2:01.389',-0.390,-0.405
'2:01.392',-0.400,-0.390
'2:01.394',-0.385,-0.370
'2:01.397',-0.380,-0.350
'2:01.400',-0.370,-0.345
'2:01.403',-0.370,-0.345
'2:01.406',-0.360,-0.330
'2:01.408',-0.360,-0.325
'2:01.411',-0.350,-0.290
'2:01.414',-0.340,-0.270
'2:01.417',-0.320,-0.265
'2:01.419',-0.315,-0.270
'2:01.422',-0.310,-0.265
'2:01.425',-0.310,-0.255
'2:01.428',-0.305,-0.240
'2:01.431',-0.285,-0.230
'2:01.433',-0.270,-0.225
'2:01.436',-0.280,-0.250
'2:01.439',-0.295,-0.250
'2:01.442',-0.285,-0.240
'2:01.444',-0.290,-0.225
'2:01.447',-0.290,-0.195
'2:01.450',-0.300,-0.205
'2:01.453',-0.280,-0.215
'2:01.456',-0.290,-0.215
'2:01.458',-0.290,-0.205
'2:01.461',-0.280,-0.210
'2:01.464',-0.270,-0.205
'2:01.467',-0.275,-0.205
'2:01.469',-0.270,-0.205
'2:01.472',-0.275,-0.215
'2:01.475',-0.275,-0.210
'2:01.478',-0.270,-0.205
'2:01.481',-0.265,-0.200
'2:01.483',-0.270,-0.200
'2:01.486',-0.270,-0.215
'2:01.489',-0.270,-0.215
'2:01.492',-0.285,-0.215
'2:01.494',-0.290,-0.215
'2:01.497',-0.275,-0.205
'2:01.500',-0.280,-0.205
'2:01.503',-0.285,-0.210
'2:01.506',-0.290,-0.225
'2:01.508',-0.295,-0.215
'2:01.511',-0.295,-0.215
'2:01.514',-0.290,-0.210
'2:01.517',-0.290,-0.215
'2:01.519',-0.295,-0.225
'2:01.522',-0.305,-0.235
'2:01.525',-0.305,-0.235
'2:01.528',-0.305,-0.215
'2:01.531',-0.295,-0.215
'2:01.533',-0.290,-0.215
'2:01.536',-0.300,-0.225
'2:01.539',-0.305,-0.235
'2:01.542',-0.315,-0.235
'2:01.544',-0.295,-0.225
'2:01.547',-0.290,-0.220
'2:01.550',-0.285,-0.235
'2:01.553',-0.295,-0.245
'2:01.556',-0.305,-0.250
'2:01.558',-0.315,-0.235
'2:01.561',-0.310,-0.230
'2:01.564',-0.295,-0.225
'2:01.567',-0.300,-0.240
'2:01.569',-0.305,-0.235
'2:01.572',-0.335,-0.250
'2:01.575',-0.340,-0.245
'2:01.578',-0.320,-0.230
'2:01.581',-0.310,-0.235
'2:01.583',-0.300,-0.235
'2:01.586',-0.315,-0.255
'2:01.589',-0.335,-0.255
'2:01.592',-0.340,-0.265
'2:01.594',-0.325,-0.245
'2:01.597',-0.320,-0.250
'2:01.600',-0.320,-0.240
'2:01.603',-0.330,-0.260
'2:01.606',-0.340,-0.255
'2:01.608',-0.340,-0.245
'2:01.611',-0.330,-0.245
'2:01.614',-0.320,-0.240
'2:01.617',-0.320,-0.245
'2:01.619',-0.330,-0.265
'2:01.622',-0.325,-0.255
'2:01.625',-0.320,-0.255
'2:01.628',-0.320,-0.240
'2:01.631',-0.325,-0.240
'2:01.633',-0.335,-0.230
'2:01.636',-0.330,-0.245
'2:01.639',-0.335,-0.260
'2:01.642',-0.345,-0.255
'2:01.644',-0.320,-0.245
'2:01.647',-0.325,-0.245
'2:01.650',-0.320,-0.245
'2:01.653',-0.330,-0.255
'2:01.656',-0.350,-0.260
'2:01.658',-0.350,-0.250
'2:01.661',-0.345,-0.235
'2:01.664',-0.325,-0.240
'2:01.667',-0.325,-0.245
'2:01.669',-0.325,-0.250
'2:01.672',-0.330,-0.270
'2:01.675',-0.335,-0.260
'2:01.678',-0.340,-0.245
'2:01.681',-0.335,-0.235
'2:01.683',-0.335,-0.235
'2:01.686',-0.330,-0.255
'2:01.689',-0.345,-0.255
'2:01.692',-0.335,-0.255
'2:01.694',-0.330,-0.230
'2:01.697',-0.315,-0.235
'2:01.700',-0.320,-0.240
'2:01.703',-0.320,-0.245
'2:01.706',-0.335,-0.255
'2:01.708',-0.325,-0.250
'2:01.711',-0.315,-0.240
'2:01.714',-0.300,-0.235
'2:01.717',-0.275,-0.245
'2:01.719',-0.270,-0.250
'2:01.722',-0.270,-0.250
'2:01.725',-0.280,-0.245
'2:01.728',-0.270,-0.225
'2:01.731',-0.255,-0.215
'2:01.733',-0.240,-0.230
'2:01.736',-0.240,-0.220
'2:01.739',-0.235,-0.220
'2:01.742',-0.235,-0.215
'2:01.744',-0.220,-0.210
'2:01.747',-0.210,-0.205
'2:01.750',-0.220,-0.210
'2:01.753',-0.240,-0.210
'2:01.756',-0.240,-0.210
'2:01.758',-0.260,-0.210
'2:01.761',-0.240,-0.195
'2:01.764',-0.240,-0.180
'2:01.767',-0.230,-0.170
'2:01.769',-0.235,-0.175
'2:01.772',-0.235,-0.205
'2:01.775',-0.240,-0.185
'2:01.778',-0.230,-0.175
'2:01.781',-0.235,-0.180
'2:01.783',-0.235,-0.180
'2:01.786',-0.255,-0.190
'2:01.789',-0.255,-0.205
'2:01.792',-0.250,-0.200
'2:01.794',-0.220,-0.185
'2:01.797',-0.205,-0.195
'2:01.800',-0.215,-0.200
'2:01.803',-0.250,-0.220
'2:01.806',-0.290,-0.225
'2:01.808',-0.295,-0.230
'2:01.811',-0.315,-0.225
'2:01.814',-0.320,-0.225
'2:01.817',-0.340,-0.230
'2:01.819',-0.350,-0.245
'2:01.822',-0.350,-0.245
'2:01.825',-0.355,-0.235
'2:01.828',-0.355,-0.230
'2:01.831',-0.325,-0.230
'2:01.833',-0.325,-0.235
'2:01.836',-0.340,-0.245
'2:01.839',-0.365,-0.245
'2:01.842',-0.365,-0.260
'2:01.844',-0.365,-0.235
'2:01.847',-0.355,-0.230
'2:01.850',-0.360,-0.240
'2:01.853',-0.365,-0.260
'2:01.856',-0.370,-0.265
'2:01.858',-0.360,-0.245
'2:01.861',-0.360,-0.235
'2:01.864',-0.360,-0.230
'2:01.867',-0.350,-0.240
'2:01.869',-0.365,-0.250
'2:01.872',-0.375,-0.265
'2:01.875',-0.375,-0.275
'2:01.878',-0.380,-0.285
'2:01.881',-0.395,-0.290
'2:01.883',-0.430,-0.320
'2:01.886',-0.480,-0.370
'2:01.889',-0.505,-0.395
'2:01.892',-0.535,-0.400
'2:01.894',-0.585,-0.360
'2:01.897',-0.600,-0.240
'2:01.900',-0.550,-0.125
'2:01.903',-0.430,-0.045
'2:01.906',-0.310,-0.005
'2:01.908',-0.160,0.090
'2:01.911',0.060,0.185
'2:01.914',0.345,0.300
'2:01.917',0.595,0.400
'2:01.919',0.765,0.475
'2:01.922',0.860,0.475
'2:01.925',0.880,0.345
'2:01.928',0.795,0.080
'2:01.931',0.540,-0.225
'2:01.933',0.185,-0.390
'2:01.936',-0.190,-0.390
'2:01.939',-0.415,-0.350
'2:01.942',-0.525,-0.315
'2:01.944',-0.515,-0.295
'2:01.947',-0.460,-0.285
'2:01.950',-0.420,-0.265
'2:01.953',-0.410,-0.295
'2:01.956',-0.420,-0.300
'2:01.958',-0.440,-0.295
'2:01.961',-0.420,-0.285
'2:01.964',-0.400,-0.285
'2:01.967',-0.405,-0.290
'2:01.969',-0.410,-0.285
'2:01.972',-0.430,-0.290
'2:01.975',-0.410,-0.285
'2:01.978',-0.405,-0.285
'2:01.981',-0.410,-0.280
'2:01.983',-0.405,-0.275
'2:01.986',-0.420,-0.300
'2:01.989',-0.425,-0.300
'2:01.992',-0.425,-0.295
'2:01.994',-0.415,-0.270
'2:01.997',-0.405,-0.260
'2:02.000',-0.410,-0.275
'2:02.003',-0.420,-0.290
'2:02.006',-0.430,-0.305
'2:02.008',-0.425,-0.300
'2:02.011',-0.420,-0.285
'2:02.014',-0.415,-0.280
'2:02.017',-0.410,-0.265
'2:02.019',-0.415,-0.285
'2:02.022',-0.415,-0.285
'2:02.025',-0.430,-0.290
'2:02.028',-0.410,-0.280
'2:02.031',-0.400,-0.270
'2:02.033',-0.415,-0.275
'2:02.036',-0.430,-0.285
'2:02.039',-0.430,-0.290
'2:02.042',-0.435,-0.295
'2:02.044',-0.425,-0.285
'2:02.047',-0.415,-0.285
'2:02.050',-0.410,-0.290
'2:02.053',-0.420,-0.285
'2:02.056',-0.420,-0.300
'2:02.058',-0.425,-0.285
'2:02.061',-0.425,-0.280
'2:02.064',-0.420,-0.270
'2:02.067',-0.425,-0.285
'2:02.069',-0.420,-0.300
'2:02.072',-0.425,-0.300
'2:02.075',-0.435,-0.290
'2:02.078',-0.430,-0.300
'2:02.081',-0.420,-0.280
'2:02.083',-0.430,-0.280
'2:02.086',-0.430,-0.300
'2:02.089',-0.425,-0.305
'2:02.092',-0.425,-0.300
'2:02.094',-0.425,-0.285
'2:02.097',-0.410,-0.295
'2:02.100',-0.410,-0.300
'2:02.103',-0.405,-0.315
'2:02.106',-0.420,-0.320
'2:02.108',-0.420,-0.315
'2:02.111',-0.405,-0.315
'2:02.114',-0.415,-0.320
'2:02.117',-0.415,-0.325
'2:02.119',-0.425,-0.330
'2:02.122',-0.430,-0.345
'2:02.125',-0.445,-0.335
'2:02.128',-0.435,-0.320
'2:02.131',-0.420,-0.335
'2:02.133',-0.420,-0.330
'2:02.136',-0.425,-0.355
'2:02.139',-0.440,-0.375
'2:02.142',-0.440,-0.375
'2:02.144',-0.445,-0.380
'2:02.147',-0.425,-0.370
'2:02.150',-0.425,-0.380
'2:02.153',-0.450,-0.400
'2:02.156',-0.445,-0.415
'2:02.158',-0.450,-0.415
'2:02.161',-0.450,-0.395
'2:02.164',-0.445,-0.400
'2:02.167',-0.435,-0.410
'2:02.169',-0.450,-0.425
'2:02.172',-0.460,-0.425
'2:02.175',-0.465,-0.430
'2:02.178',-0.465,-0.420
'2:02.181',-0.455,-0.410
'2:02.183',-0.450,-0.415
'2:02.186',-0.460,-0.425
'2:02.189',-0.475,-0.440
'2:02.192',-0.475,-0.430
'2:02.194',-0.475,-0.405
'2:02.197',-0.460,-0.395
'2:02.200',-0.450,-0.390
'2:02.203',-0.445,-0.380
'2:02.206',-0.440,-0.385
'2:02.208',-0.440,-0.365
'2:02.211',-0.425,-0.345
'2:02.214',-0.415,-0.335
'2:02.217',-0.400,-0.315
'2:02.219',-0.390,-0.325
'2:02.222',-0.390,-0.320
'2:02.225',-0.390,-0.310
'2:02.228',-0.375,-0.300
'2:02.231',-0.360,-0.290
'2:02.233',-0.355,-0.280
'2:02.236',-0.355,-0.280
'2:02.239',-0.350,-0.275
'2:02.242',-0.350,-0.280
'2:02.244',-0.350,-0.275
'2:02.247',-0.345,-0.270
'2:02.250',-0.350,-0.270
'2:02.253',-0.350,-0.275
'2:02.256',-0.350,-0.275
'2:02.258',-0.345,-0.275
'2:02.261',-0.340,-0.260
'2:02.264',-0.325,-0.265
'2:02.267',-0.345,-0.260
'2:02.269',-0.335,-0.275
'2:02.272',-0.345,-0.285
'2:02.275',-0.350,-0.285
'2:02.278',-0.350,-0.285
'2:02.281',-0.355,-0.270
'2:02.283',-0.340,-0.270
'2:02.286',-0.340,-0.275
'2:02.289',-0.335,-0.275
'2:02.292',-0.340,-0.275
'2:02.294',-0.340,-0.280
'2:02.297',-0.340,-0.270
'2:02.300',-0.345,-0.265
'2:02.303',-0.335,-0.280
'2:02.306',-0.350,-0.285
'2:02.308',-0.355,-0.280
'2:02.311',-0.340,-0.270
'2:02.314',-0.350,-0.270
'2:02.317',-0.340,-0.275
'2:02.319',-0.360,-0.300
'2:02.322',-0.375,-0.315
'2:02.325',-0.380,-0.305
'2:02.328',-0.365,-0.290
'2:02.331',-0.355,-0.280
'2:02.333',-0.355,-0.285
'2:02.336',-0.355,-0.300
'2:02.339',-0.360,-0.305
'2:02.342',-0.360,-0.295
'2:02.344',-0.355,-0.300
'2:02.347',-0.350,-0.300
'2:02.350',-0.345,-0.305
'2:02.353',-0.360,-0.300
'2:02.356',-0.370,-0.305
'2:02.358',-0.395,-0.310
'2:02.361',-0.370,-0.280
'2:02.364',-0.360,-0.290
'2:02.367',-0.360,-0.305
'2:02.369',-0.375,-0.325
'2:02.372',-0.390,-0.325
'2:02.375',-0.385,-0.330
'2:02.378',-0.375,-0.305
'2:02.381',-0.375,-0.295
'2:02.383',-0.370,-0.305
'2:02.386',-0.370,-0.310
'2:02.389',-0.380,-0.335
'2:02.392',-0.385,-0.320
'2:02.394',-0.385,-0.315
'2:02.397',-0.375,-0.310
'2:02.400',-0.365,-0.305
'2:02.403',-0.380,-0.305
'2:02.406',-0.390,-0.310
'2:02.408',-0.400,-0.320
'2:02.411',-0.385,-0.310
'2:02.414',-0.370,-0.305
'2:02.417',-0.390,-0.320
'2:02.419',-0.390,-0.310
'2:02.422',-0.395,-0.325
'2:02.425',-0.410,-0.325
'2:02.428',-0.400,-0.320
'2:02.431',-0.390,-0.315
'2:02.433',-0.365,-0.305
'2:02.436',-0.380,-0.320
'2:02.439',-0.380,-0.325
'2:02.442',-0.380,-0.330
'2:02.444',-0.390,-0.305
'2:02.447',-0.375,-0.305
'2:02.450',-0.370,-0.305
'2:02.453',-0.370,-0.315
'2:02.456',-0.380,-0.340
'2:02.458',-0.400,-0.335
'2:02.461',-0.370,-0.315
'2:02.464',-0.370,-0.320
'2:02.467',-0.360,-0.315
'2:02.469',-0.370,-0.325
'2:02.472',-0.375,-0.335
'2:02.475',-0.380,-0.325
'2:02.478',-0.380,-0.310
'2:02.481',-0.365,-0.305
'2:02.483',-0.350,-0.295
'2:02.486',-0.345,-0.315
'2:02.489',-0.335,-0.330
'2:02.492',-0.340,-0.335
'2:02.494',-0.325,-0.330
'2:02.497',-0.325,-0.315
'2:02.500',-0.325,-0.330
'2:02.503',-0.320,-0.335
'2:02.506',-0.330,-0.320
'2:02.508',-0.325,-0.330
'2:02.511',-0.315,-0.305
'2:02.514',-0.290,-0.300
'2:02.517',-0.290,-0.300
'2:02.519',-0.285,-0.295
'2:02.522',-0.285,-0.290
'2:02.525',-0.280,-0.295
'2:02.528',-0.265,-0.295
'2:02.531',-0.265,-0.295
'2:02.533',-0.260,-0.290
'2:02.536',-0.280,-0.305
'2:02.539',-0.285,-0.310
'2:02.542',-0.305,-0.305
'2:02.544',-0.295,-0.290
'2:02.547',-0.275,-0.290
'2:02.550',-0.265,-0.280
'2:02.553',-0.270,-0.280
'2:02.556',-0.285,-0.300
'2:02.558',-0.305,-0.285
'2:02.561',-0.305,-0.275
'2:02.564',-0.305,-0.280
'2:02.567',-0.300,-0.285
'2:02.569',-0.290,-0.295
'2:02.572',-0.295,-0.315
'2:02.575',-0.300,-0.325
'2:02.578',-0.315,-0.315
'2:02.581',-0.330,-0.305
'2:02.583',-0.345,-0.315
'2:02.586',-0.375,-0.315
'2:02.589',-0.385,-0.330
'2:02.592',-0.390,-0.335
'2:02.594',-0.385,-0.345
'2:02.597',-0.380,-0.340
'2:02.600',-0.385,-0.335
'2:02.603',-0.390,-0.330
'2:02.606',-0.390,-0.340
'2:02.608',-0.390,-0.345
'2:02.611',-0.385,-0.335
'2:02.614',-0.395,-0.340
'2:02.617',-0.395,-0.335
'2:02.619',-0.395,-0.345
'2:02.622',-0.425,-0.360
'2:02.625',-0.415,-0.340
'2:02.628',-0.410,-0.335
'2:02.631',-0.395,-0.340
'2:02.633',-0.395,-0.350
'2:02.636',-0.410,-0.350
'2:02.639',-0.405,-0.355
'2:02.642',-0.415,-0.350
'2:02.644',-0.400,-0.335
'2:02.647',-0.395,-0.325
'2:02.650',-0.405,-0.330
'2:02.653',-0.415,-0.380
'2:02.656',-0.435,-0.400
'2:02.658',-0.470,-0.420
'2:02.661',-0.500,-0.415
'2:02.664',-0.490,-0.435
'2:02.667',-0.495,-0.460
'2:02.669',-0.535,-0.475
'2:02.672',-0.600,-0.430
'2:02.675',-0.615,-0.330
'2:02.678',-0.575,-0.205
'2:02.681',-0.475,-0.115
'2:02.683',-0.350,-0.035
'2:02.686',-0.190,0.020
'2:02.689',0.005,0.110
'2:02.692',0.265,0.245
'2:02.694',0.565,0.355
'2:02.697',0.780,0.335
'2:02.700',0.860,0.090
'2:02.703',0.735,-0.250
'2:02.706',0.400,-0.485
'2:02.708',-0.025,-0.520
'2:02.711',-0.360,-0.460
'2:02.714',-0.490,-0.405
'2:02.717',-0.525,-0.375
'2:02.719',-0.500,-0.375
'2:02.722',-0.460,-0.390
'2:02.725',-0.445,-0.375
'2:02.728',-0.440,-0.365
'2:02.731',-0.430,-0.350
'2:02.733',-0.415,-0.355
'2:02.736',-0.420,-0.365
'2:02.739',-0.425,-0.370
'2:02.742',-0.450,-0.370
'2:02.744',-0.430,-0.365
'2:02.747',-0.425,-0.365
'2:02.750',-0.425,-0.355
'2:02.753',-0.425,-0.355
'2:02.756',-0.440,-0.360
'2:02.758',-0.435,-0.365
'2:02.761',-0.430,-0.355
'2:02.764',-0.430,-0.350
'2:02.767',-0.415,-0.360
'2:02.769',-0.425,-0.355
'2:02.772',-0.425,-0.365
'2:02.775',-0.430,-0.350
'2:02.778',-0.435,-0.355
'2:02.781',-0.410,-0.340
'2:02.783',-0.415,-0.345
'2:02.786',-0.425,-0.360
'2:02.789',-0.430,-0.365
'2:02.792',-0.440,-0.350
'2:02.794',-0.440,-0.335
'2:02.797',-0.420,-0.335
'2:02.800',-0.420,-0.340
'2:02.803',-0.415,-0.340
'2:02.806',-0.425,-0.355
'2:02.808',-0.440,-0.355
'2:02.811',-0.435,-0.350
'2:02.814',-0.415,-0.345
'2:02.817',-0.430,-0.350
'2:02.819',-0.420,-0.365
'2:02.822',-0.430,-0.360
'2:02.825',-0.435,-0.350
'2:02.828',-0.435,-0.335
'2:02.831',-0.425,-0.330
'2:02.833',-0.425,-0.350
'2:02.836',-0.435,-0.355
'2:02.839',-0.440,-0.355
'2:02.842',-0.435,-0.365
'2:02.844',-0.430,-0.340
'2:02.847',-0.430,-0.340
'2:02.850',-0.420,-0.350
'2:02.853',-0.430,-0.360
'2:02.856',-0.435,-0.360
'2:02.858',-0.440,-0.370
'2:02.861',-0.430,-0.355
'2:02.864',-0.420,-0.350
'2:02.867',-0.420,-0.345
'2:02.869',-0.410,-0.345
'2:02.872',-0.430,-0.360
'2:02.875',-0.420,-0.360
'2:02.878',-0.420,-0.360
'2:02.881',-0.410,-0.350
'2:02.883',-0.415,-0.360
'2:02.886',-0.425,-0.370
'2:02.889',-0.420,-0.385
'2:02.892',-0.435,-0.380
'2:02.894',-0.430,-0.390
'2:02.897',-0.420,-0.380
'2:02.900',-0.430,-0.395
'2:02.903',-0.425,-0.405
'2:02.906',-0.430,-0.405
'2:02.908',-0.435,-0.410
'2:02.911',-0.435,-0.405
'2:02.914',-0.430,-0.430
'2:02.917',-0.430,-0.420
'2:02.919',-0.450,-0.440
'2:02.922',-0.455,-0.460
'2:02.925',-0.455,-0.455
'2:02.928',-0.450,-0.445
'2:02.931',-0.465,-0.450
'2:02.933',-0.450,-0.460
'2:02.936',-0.460,-0.480
'2:02.939',-0.465,-0.495
'2:02.942',-0.465,-0.475
'2:02.944',-0.455,-0.465
'2:02.947',-0.455,-0.465
'2:02.950',-0.460,-0.460
'2:02.953',-0.460,-0.460
'2:02.956',-0.465,-0.460
'2:02.958',-0.475,-0.460
'2:02.961',-0.465,-0.430
'2:02.964',-0.440,-0.415
'2:02.967',-0.435,-0.400
'2:02.969',-0.435,-0.385
'2:02.972',-0.420,-0.385
'2:02.975',-0.415,-0.370
'2:02.978',-0.395,-0.355
'2:02.981',-0.375,-0.330
'2:02.983',-0.360,-0.310
'2:02.986',-0.355,-0.320
'2:02.989',-0.355,-0.315
'2:02.992',-0.355,-0.300
'2:02.994',-0.340,-0.275
'2:02.997',-0.325,-0.275
'2:03.000',-0.320,-0.275
'2:03.003',-0.305,-0.285
'2:03.006',-0.315,-0.290
'2:03.008',-0.310,-0.280
'2:03.011',-0.305,-0.255
'2:03.014',-0.290,-0.255
'2:03.017',-0.285,-0.265
'2:03.019',-0.290,-0.270
'2:03.022',-0.285,-0.280
'2:03.025',-0.295,-0.265
'2:03.028',-0.285,-0.255
'2:03.031',-0.285,-0.250
'2:03.033',-0.290,-0.255
'2:03.036',-0.300,-0.260
'2:03.039',-0.300,-0.275
'2:03.042',-0.310,-0.270
'2:03.044',-0.305,-0.250
'2:03.047',-0.285,-0.255
'2:03.050',-0.295,-0.265
'2:03.053',-0.295,-0.265
'2:03.056',-0.300,-0.290
'2:03.058',-0.300,-0.270
'2:03.061',-0.305,-0.250
'2:03.064',-0.285,-0.260
'2:03.067',-0.290,-0.250
'2:03.069',-0.300,-0.270
'2:03.072',-0.300,-0.285
'2:03.075',-0.310,-0.275
'2:03.078',-0.305,-0.270
'2:03.081',-0.295,-0.250
'2:03.083',-0.285,-0.265
'2:03.086',-0.295,-0.265
'2:03.089',-0.300,-0.280
'2:03.092',-0.300,-0.280
'2:03.094',-0.290,-0.270
'2:03.097',-0.290,-0.270
'2:03.100',-0.295,-0.270
'2:03.103',-0.300,-0.280
'2:03.106',-0.305,-0.280
'2:03.108',-0.320,-0.285
'2:03.111',-0.300,-0.275
'2:03.114',-0.305,-0.280
'2:03.117',-0.300,-0.285
'2:03.119',-0.310,-0.295
'2:03.122',-0.310,-0.305
'2:03.125',-0.320,-0.290
'2:03.128',-0.320,-0.285
'2:03.131',-0.315,-0.290
'2:03.133',-0.315,-0.295
'2:03.136',-0.320,-0.305
'2:03.139',-0.325,-0.315
'2:03.142',-0.330,-0.310
'2:03.144',-0.335,-0.290
'2:03.147',-0.325,-0.285
'2:03.150',-0.320,-0.280
'2:03.153',-0.325,-0.300
'2:03.156',-0.330,-0.315
'2:03.158',-0.330,-0.300
'2:03.161',-0.325,-0.295
'2:03.164',-0.325,-0.290
'2:03.167',-0.325,-0.295
'2:03.169',-0.320,-0.305
'2:03.172',-0.330,-0.305
'2:03.175',-0.340,-0.300
'2:03.178',-0.330,-0.285
'2:03.181',-0.330,-0.280
'2:03.183',-0.320,-0.295
'2:03.186',-0.320,-0.305
'2:03.189',-0.320,-0.295
'2:03.192',-0.330,-0.305
'2:03.194',-0.330,-0.275
'2:03.197',-0.310,-0.275
'2:03.200',-0.315,-0.285
'2:03.203',-0.315,-0.295
'2:03.206',-0.330,-0.300
'2:03.208',-0.325,-0.295
'2:03.211',-0.320,-0.285
'2:03.214',-0.315,-0.280
'2:03.217',-0.315,-0.270
'2:03.219',-0.320,-0.290
'2:03.222',-0.320,-0.295
'2:03.225',-0.325,-0.290
'2:03.228',-0.320,-0.280
'2:03.231',-0.305,-0.280
'2:03.233',-0.300,-0.280
'2:03.236',-0.310,-0.280
'2:03.239',-0.310,-0.290
'2:03.242',-0.315,-0.285
'2:03.244',-0.320,-0.280
'2:03.247',-0.310,-0.280
'2:03.250',-0.315,-0.275
'2:03.253',-0.305,-0.290
'2:03.256',-0.320,-0.300
'2:03.258',-0.325,-0.285
'2:03.261',-0.305,-0.275
'2:03.264',-0.290,-0.280
'2:03.267',-0.290,-0.270
'2:03.269',-0.285,-0.275
'2:03.272',-0.290,-0.295
'2:03.275',-0.285,-0.290
'2:03.278',-0.265,-0.285
'2:03.281',-0.255,-0.280
'2:03.283',-0.235,-0.260
'2:03.286',-0.240,-0.280
'2:03.289',-0.235,-0.280
'2:03.292',-0.240,-0.260
'2:03.294',-0.235,-0.255
'2:03.297',-0.220,-0.255
'2:03.300',-0.205,-0.245
'2:03.303',-0.215,-0.250
'2:03.306',-0.195,-0.255
'2:03.308',-0.200,-0.240
'2:03.311',-0.190,-0.230
'2:03.314',-0.190,-0.230
'2:03.317',-0.190,-0.235
'2:03.319',-0.195,-0.245
'2:03.322',-0.200,-0.250
'2:03.325',-0.215,-0.250
'2:03.328',-0.215,-0.235
'2:03.331',-0.200,-0.230
'2:03.333',-0.210,-0.225
'2:03.336',-0.230,-0.230
'2:03.339',-0.225,-0.240
'2:03.342',-0.230,-0.235
'2:03.344',-0.235,-0.220
'2:03.347',-0.240,-0.205
'2:03.350',-0.225,-0.225
'2:03.353',-0.210,-0.240
'2:03.356',-0.205,-0.260
'2:03.358',-0.210,-0.255
'2:03.361',-0.225,-0.255
'2:03.364',-0.250,-0.235
'2:03.367',-0.260,-0.245
'2:03.369',-0.275,-0.260
'2:03.372',-0.300,-0.275
'2:03.375',-0.315,-0.275
'2:03.378',-0.325,-0.265
'2:03.381',-0.325,-0.265
'2:03.383',-0.315,-0.275
'2:03.386',-0.320,-0.275
'2:03.389',-0.325,-0.285
'2:03.392',-0.335,-0.285
'2:03.394',-0.325,-0.280
'2:03.397',-0.320,-0.270
'2:03.400',-0.320,-0.280
'2:03.403',-0.330,-0.280
'2:03.406',-0.335,-0.300
'2:03.408',-0.345,-0.285
'2:03.411',-0.340,-0.275
'2:03.414',-0.335,-0.280
'2:03.417',-0.340,-0.285
'2:03.419',-0.345,-0.295
'2:03.422',-0.355,-0.300
'2:03.425',-0.360,-0.285
'2:03.428',-0.350,-0.280
'2:03.431',-0.350,-0.275
'2:03.433',-0.345,-0.280
'2:03.436',-0.365,-0.310
'2:03.439',-0.380,-0.340
'2:03.442',-0.415,-0.375
'2:03.444',-0.440,-0.370
'2:03.447',-0.465,-0.395
'2:03.450',-0.480,-0.420
'2:03.453',-0.510,-0.440
'2:03.456',-0.560,-0.420
'2:03.458',-0.605,-0.325
'2:03.461',-0.580,-0.225
'2:03.464',-0.490,-0.085
'2:03.467',-0.380,0.020
'2:03.469',-0.250,0.100
'2:03.472',-0.150,0.175
'2:03.475',-0.020,0.290
'2:03.478',0.205,0.415
'2:03.481',0.480,0.545
'2:03.483',0.735,0.640
'2:03.486',0.920,0.645
'2:03.489',0.980,0.445
'2:03.492',0.895,0.070
'2:03.494',0.625,-0.245
'2:03.497',0.200,-0.355
'2:03.500',-0.205,-0.325
'2:03.503',-0.455,-0.310
'2:03.506',-0.495,-0.330
'2:03.508',-0.460,-0.320
'2:03.511',-0.410,-0.305
'2:03.514',-0.365,-0.295
'2:03.517',-0.380,-0.310
'2:03.519',-0.385,-0.325
'2:03.522',-0.380,-0.330
'2:03.525',-0.395,-0.340
'2:03.528',-0.380,-0.330
'2:03.531',-0.375,-0.320
'2:03.533',-0.385,-0.330
'2:03.536',-0.390,-0.340
'2:03.539',-0.395,-0.340
'2:03.542',-0.405,-0.340
'2:03.544',-0.390,-0.325
'2:03.547',-0.380,-0.325
'2:03.550',-0.375,-0.330
'2:03.553',-0.390,-0.350
'2:03.556',-0.400,-0.350
'2:03.558',-0.405,-0.335
'2:03.561',-0.395,-0.325
'2:03.564',-0.385,-0.320
'2:03.567',-0.385,-0.335
'2:03.569',-0.395,-0.335
'2:03.572',-0.395,-0.345
'2:03.575',-0.415,-0.335
'2:03.578',-0.390,-0.320
'2:03.581',-0.380,-0.315
'2:03.583',-0.380,-0.320
'2:03.586',-0.380,-0.320
'2:03.589',-0.390,-0.335
'2:03.592',-0.395,-0.325
'2:03.594',-0.385,-0.330
'2:03.597',-0.380,-0.325
'2:03.600',-0.380,-0.320
'2:03.603',-0.385,-0.335
'2:03.606',-0.390,-0.340
'2:03.608',-0.400,-0.330
'2:03.611',-0.395,-0.315
'2:03.614',-0.380,-0.315
'2:03.617',-0.385,-0.320
'2:03.619',-0.385,-0.330
'2:03.622',-0.385,-0.340
'2:03.625',-0.395,-0.340
'2:03.628',-0.385,-0.330
'2:03.631',-0.380,-0.320
'2:03.633',-0.385,-0.315
'2:03.636',-0.385,-0.330
'2:03.639',-0.395,-0.345
'2:03.642',-0.405,-0.345
'2:03.644',-0.390,-0.330
'2:03.647',-0.385,-0.330
'2:03.650',-0.370,-0.330
'2:03.653',-0.385,-0.340
'2:03.656',-0.390,-0.355
'2:03.658',-0.405,-0.345
'2:03.661',-0.390,-0.345
'2:03.664',-0.380,-0.345
'2:03.667',-0.380,-0.345
'2:03.669',-0.380,-0.355
'2:03.672',-0.390,-0.375
'2:03.675',-0.390,-0.375
'2:03.678',-0.390,-0.365
'2:03.681',-0.380,-0.365
'2:03.683',-0.360,-0.370
'2:03.686',-0.370,-0.385
'2:03.689',-0.380,-0.395
'2:03.692',-0.380,-0.395
'2:03.694',-0.400,-0.390
'2:03.697',-0.375,-0.390
'2:03.700',-0.380,-0.405
'2:03.703',-0.385,-0.410
'2:03.706',-0.395,-0.435
'2:03.708',-0.400,-0.445
'2:03.711',-0.400,-0.425
'2:03.714',-0.400,-0.435
'2:03.717',-0.395,-0.430
'2:03.719',-0.395,-0.420
'2:03.722',-0.390,-0.455
'2:03.725',-0.400,-0.450
'2:03.728',-0.385,-0.460
'2:03.731',-0.385,-0.455
'2:03.733',-0.395,-0.450
'2:03.736',-0.390,-0.475
'2:03.739',-0.400,-0.490
'2:03.742',-0.400,-0.475
'2:03.744',-0.395,-0.475
'2:03.747',-0.395,-0.465
'2:03.750',-0.400,-0.465
'2:03.753',-0.395,-0.475
'2:03.756',-0.400,-0.485
'2:03.758',-0.395,-0.470
'2:03.761',-0.390,-0.450
'2:03.764',-0.370,-0.435
'2:03.767',-0.370,-0.415
'2:03.769',-0.375,-0.425
'2:03.772',-0.370,-0.405
'2:03.775',-0.365,-0.385
'2:03.778',-0.350,-0.370
'2:03.781',-0.335,-0.350
'2:03.783',-0.330,-0.345
'2:03.786',-0.320,-0.330
'2:03.789',-0.330,-0.325
'2:03.792',-0.325,-0.310
'2:03.794',-0.315,-0.300
'2:03.797',-0.300,-0.280
'2:03.800',-0.285,-0.275
'2:03.803',-0.285,-0.280
'2:03.806',-0.290,-0.290
'2:03.808',-0.295,-0.280
'2:03.811',-0.290,-0.265
'2:03.814',-0.255,-0.250
'2:03.817',-0.265,-0.255
'2:03.819',-0.270,-0.280
'2:03.822',-0.270,-0.280
'2:03.825',-0.275,-0.275
'2:03.828',-0.275,-0.265
'2:03.831',-0.265,-0.245
'2:03.833',-0.260,-0.250
'2:03.836',-0.265,-0.265
'2:03.839',-0.275,-0.265
'2:03.842',-0.280,-0.260
'2:03.844',-0.260,-0.255
'2:03.847',-0.260,-0.250
'2:03.850',-0.270,-0.255
'2:03.853',-0.260,-0.255
'2:03.856',-0.280,-0.265
'2:03.858',-0.285,-0.260
'2:03.861',-0.275,-0.260
'2:03.864',-0.270,-0.245
'2:03.867',-0.275,-0.255
'2:03.869',-0.275,-0.270
'2:03.872',-0.295,-0.280
'2:03.875',-0.285,-0.275
'2:03.878',-0.290,-0.270
'2:03.881',-0.280,-0.265
'2:03.883',-0.280,-0.265
'2:03.886',-0.280,-0.280
'2:03.889',-0.305,-0.280
'2:03.892',-0.310,-0.295
'2:03.894',-0.300,-0.265
'2:03.897',-0.295,-0.275
'2:03.900',-0.280,-0.270
'2:03.903',-0.300,-0.285
'2:03.906',-0.300,-0.290
'2:03.908',-0.305,-0.285
'2:03.911',-0.300,-0.285
'2:03.914',-0.295,-0.280
'2:03.917',-0.300,-0.290
'2:03.919',-0.300,-0.285
'2:03.922',-0.305,-0.295
'2:03.925',-0.320,-0.295
'2:03.928',-0.310,-0.285
'2:03.931',-0.305,-0.280
'2:03.933',-0.305,-0.285
'2:03.936',-0.315,-0.305
'2:03.939',-0.315,-0.310
'2:03.942',-0.325,-0.305
'2:03.944',-0.325,-0.300
'2:03.947',-0.315,-0.285
'2:03.950',-0.320,-0.290
'2:03.953',-0.320,-0.300
'2:03.956',-0.330,-0.310
'2:03.958',-0.325,-0.315
'2:03.961',-0.330,-0.295
'2:03.964',-0.315,-0.300
'2:03.967',-0.315,-0.290
'2:03.969',-0.315,-0.300
'2:03.972',-0.320,-0.305
'2:03.975',-0.330,-0.310
'2:03.978',-0.310,-0.300
'2:03.981',-0.315,-0.295
'2:03.983',-0.310,-0.290
'2:03.986',-0.315,-0.295
'2:03.989',-0.325,-0.310
'2:03.992',-0.335,-0.300
'2:03.994',-0.330,-0.295
'2:03.997',-0.310,-0.295
'2:04.000',-0.320,-0.295
'2:04.003',-0.315,-0.300
'2:04.006',-0.320,-0.310
'2:04.008',-0.330,-0.320
'2:04.011',-0.325,-0.290
'2:04.014',-0.310,-0.275
'2:04.017',-0.315,-0.285
'2:04.019',-0.305,-0.290
'2:04.022',-0.310,-0.305
'2:04.025',-0.330,-0.300
'2:04.028',-0.320,-0.285
'2:04.031',-0.305,-0.290
'2:04.033',-0.310,-0.295
'2:04.036',-0.315,-0.285
'2:04.039',-0.315,-0.300
'2:04.042',-0.320,-0.285
'2:04.044',-0.320,-0.270
'2:04.047',-0.310,-0.270
'2:04.050',-0.305,-0.270
'2:04.053',-0.305,-0.285
'2:04.056',-0.320,-0.305
'2:04.058',-0.315,-0.295
'2:04.061',-0.315,-0.270
'2:04.064',-0.300,-0.265
'2:04.067',-0.290,-0.265
'2:04.069',-0.290,-0.280
'2:04.072',-0.285,-0.295
'2:04.075',-0.290,-0.280
'2:04.078',-0.270,-0.275
'2:04.081',-0.245,-0.280
'2:04.083',-0.245,-0.280
'2:04.086',-0.245,-0.285
'2:04.089',-0.260,-0.270
'2:04.092',-0.265,-0.265
'2:04.094',-0.245,-0.250
'2:04.097',-0.225,-0.230
'2:04.100',-0.215,-0.240
'2:04.103',-0.210,-0.250
'2:04.106',-0.200,-0.260
'2:04.108',-0.220,-0.240
'2:04.111',-0.215,-0.235
'2:04.114',-0.210,-0.220
'2:04.117',-0.215,-0.225
'2:04.119',-0.215,-0.230
'2:04.122',-0.225,-0.240
'2:04.125',-0.240,-0.225
'2:04.128',-0.235,-0.220
'2:04.131',-0.215,-0.220
'2:04.133',-0.220,-0.210
'2:04.136',-0.235,-0.225
'2:04.139',-0.230,-0.220
'2:04.142',-0.230,-0.230
'2:04.144',-0.200,-0.235
'2:04.147',-0.185,-0.230
'2:04.150',-0.195,-0.235
'2:04.153',-0.235,-0.240
'2:04.156',-0.260,-0.255
'2:04.158',-0.275,-0.245
'2:04.161',-0.290,-0.245
'2:04.164',-0.285,-0.245
'2:04.167',-0.300,-0.265
'2:04.169',-0.305,-0.270
'2:04.172',-0.325,-0.270
'2:04.175',-0.335,-0.270
'2:04.178',-0.330,-0.255
'2:04.181',-0.315,-0.255
'2:04.183',-0.325,-0.255
'2:04.186',-0.320,-0.265
'2:04.189',-0.345,-0.270
'2:04.192',-0.350,-0.275
'2:04.194',-0.325,-0.270
'2:04.197',-0.320,-0.270
'2:04.200',-0.325,-0.255
'2:04.203',-0.320,-0.275
'2:04.206',-0.330,-0.275
'2:04.208',-0.335,-0.270
'2:04.211',-0.335,-0.260
'2:04.214',-0.335,-0.250
'2:04.217',-0.315,-0.260
'2:04.219',-0.335,-0.275
'2:04.222',-0.335,-0.285
'2:04.225',-0.345,-0.290
'2:04.228',-0.335,-0.275
'2:04.231',-0.335,-0.265
'2:04.233',-0.330,-0.270
'2:04.236',-0.335,-0.285
'2:04.239',-0.340,-0.315
'2:04.242',-0.350,-0.335
'2:04.244',-0.380,-0.355
'2:04.247',-0.410,-0.380
'2:04.250',-0.440,-0.395
'2:04.253',-0.470,-0.430
'2:04.256',-0.500,-0.410
'2:04.258',-0.535,-0.335
'2:04.261',-0.555,-0.215
'2:04.264',-0.495,-0.080
'2:04.267',-0.395,0.020
'2:04.269',-0.255,0.120
'2:04.272',-0.110,0.220
'2:04.275',0.060,0.350
'2:04.278',0.335,0.480
'2:04.281',0.620,0.590
'2:04.283',0.835,0.615
'2:04.286',0.935,0.455
'2:04.289',0.900,0.145
'2:04.292',0.675,-0.185
'2:04.294',0.285,-0.345
'2:04.297',-0.090,-0.335
'2:04.300',-0.360,-0.295
'2:04.303',-0.475,-0.310
'2:04.306',-0.480,-0.310
'2:04.308',-0.435,-0.310
'2:04.311',-0.380,-0.295
'2:04.314',-0.345,-0.290
'2:04.317',-0.350,-0.300
'2:04.319',-0.370,-0.310
'2:04.322',-0.365,-0.310
'2:04.325',-0.370,-0.315
'2:04.328',-0.365,-0.310
'2:04.331',-0.370,-0.290
'2:04.333',-0.370,-0.305
'2:04.336',-0.370,-0.310
'2:04.339',-0.385,-0.315
'2:04.342',-0.385,-0.325
'2:04.344',-0.380,-0.310
'2:04.347',-0.380,-0.290
'2:04.350',-0.370,-0.305
'2:04.353',-0.375,-0.315
'2:04.356',-0.385,-0.320
'2:04.358',-0.390,-0.315
'2:04.361',-0.380,-0.310
'2:04.364',-0.370,-0.315
'2:04.367',-0.385,-0.300
'2:04.369',-0.375,-0.310
'2:04.372',-0.370,-0.310
'2:04.375',-0.375,-0.320
'2:04.378',-0.370,-0.295
'2:04.381',-0.360,-0.300
'2:04.383',-0.365,-0.300
'2:04.386',-0.370,-0.315
'2:04.389',-0.380,-0.320
'2:04.392',-0.390,-0.310
'2:04.394',-0.370,-0.305
'2:04.397',-0.365,-0.295
'2:04.400',-0.360,-0.300
'2:04.403',-0.365,-0.310
'2:04.406',-0.375,-0.315
'2:04.408',-0.385,-0.320
'2:04.411',-0.390,-0.310
'2:04.414',-0.375,-0.295
'2:04.417',-0.365,-0.290
'2:04.419',-0.360,-0.305
'2:04.422',-0.375,-0.315
'2:04.425',-0.385,-0.320
'2:04.428',-0.385,-0.310
'2:04.431',-0.360,-0.290
'2:04.433',-0.360,-0.305
'2:04.436',-0.370,-0.315
'2:04.439',-0.375,-0.325
'2:04.442',-0.380,-0.320
'2:04.444',-0.370,-0.315
'2:04.447',-0.360,-0.300
'2:04.450',-0.355,-0.310
'2:04.453',-0.365,-0.335
'2:04.456',-0.360,-0.325
'2:04.458',-0.370,-0.320
'2:04.461',-0.365,-0.310
'2:04.464',-0.360,-0.305
'2:04.467',-0.345,-0.310
'2:04.469',-0.355,-0.325
'2:04.472',-0.360,-0.335
'2:04.475',-0.370,-0.325
'2:04.478',-0.360,-0.325
'2:04.481',-0.350,-0.315
'2:04.483',-0.355,-0.340
'2:04.486',-0.360,-0.335
'2:04.489',-0.380,-0.350
'2:04.492',-0.375,-0.350
'2:04.494',-0.360,-0.350
'2:04.497',-0.355,-0.350
'2:04.500',-0.355,-0.365
'2:04.503',-0.360,-0.370
'2:04.506',-0.380,-0.385
'2:04.508',-0.375,-0.385
'2:04.511',-0.365,-0.385
'2:04.514',-0.355,-0.370
'2:04.517',-0.360,-0.390
'2:04.519',-0.360,-0.415
'2:04.522',-0.365,-0.415
'2:04.525',-0.385,-0.415
'2:04.528',-0.380,-0.405
'2:04.531',-0.370,-0.400
'2:04.533',-0.360,-0.415
'2:04.536',-0.370,-0.425
'2:04.539',-0.375,-0.445
'2:04.542',-0.385,-0.450
'2:04.544',-0.365,-0.440
'2:04.547',-0.375,-0.420
'2:04.550',-0.370,-0.425
'2:04.553',-0.370,-0.430
'2:04.556',-0.380,-0.435
'2:04.558',-0.380,-0.430
'2:04.561',-0.365,-0.415
'2:04.564',-0.360,-0.410
'2:04.567',-0.360,-0.385
'2:04.569',-0.365,-0.385
'2:04.572',-0.380,-0.375
'2:04.575',-0.370,-0.375
'2:04.578',-0.350,-0.340
'2:04.581',-0.330,-0.320
'2:04.583',-0.315,-0.310
'2:04.586',-0.305,-0.300
'2:04.589',-0.305,-0.305
'2:04.592',-0.295,-0.295
'2:04.594',-0.285,-0.270
'2:04.597',-0.270,-0.260
'2:04.600',-0.270,-0.255
'2:04.603',-0.280,-0.260
'2:04.606',-0.270,-0.255
'2:04.608',-0.285,-0.240
'2:04.611',-0.275,-0.245
'2:04.614',-0.265,-0.225
'2:04.617',-0.255,-0.225
'2:04.619',-0.265,-0.230
'2:04.622',-0.270,-0.230
'2:04.625',-0.265,-0.235
'2:04.628',-0.260,-0.230
'2:04.631',-0.265,-0.215
'2:04.633',-0.255,-0.225
'2:04.636',-0.260,-0.235
'2:04.639',-0.260,-0.245
'2:04.642',-0.275,-0.245
'2:04.644',-0.275,-0.230
'2:04.647',-0.270,-0.215
'2:04.650',-0.255,-0.225
'2:04.653',-0.280,-0.220
'2:04.656',-0.285,-0.230
'2:04.658',-0.295,-0.230
'2:04.661',-0.270,-0.230
'2:04.664',-0.260,-0.210
'2:04.667',-0.255,-0.215
'2:04.669',-0.270,-0.225
'2:04.672',-0.275,-0.235
'2:04.675',-0.280,-0.245
'2:04.678',-0.260,-0.235
'2:04.681',-0.260,-0.230
'2:04.683',-0.265,-0.235
'2:04.686',-0.275,-0.235
'2:04.689',-0.285,-0.240
'2:04.692',-0.290,-0.245
'2:04.694',-0.285,-0.235
'2:04.697',-0.280,-0.235
'2:04.700',-0.285,-0.230
'2:04.703',-0.285,-0.235
'2:04.706',-0.295,-0.235
'2:04.708',-0.300,-0.230
'2:04.711',-0.295,-0.225
'2:04.714',-0.290,-0.230
'2:04.717',-0.300,-0.235
'2:04.719',-0.305,-0.255
'2:04.722',-0.320,-0.270
'2:04.725',-0.325,-0.260
'2:04.728',-0.320,-0.260
'2:04.731',-0.310,-0.250
'2:04.733',-0.315,-0.240
'2:04.736',-0.310,-0.235
'2:04.739',-0.305,-0.245
'2:04.742',-0.305,-0.250
'2:04.744',-0.305,-0.240
'2:04.747',-0.305,-0.245
'2:04.750',-0.305,-0.260
'2:04.753',-0.305,-0.260
'2:04.756',-0.315,-0.265
'2:04.758',-0.315,-0.270
'2:04.761',-0.305,-0.260
'2:04.764',-0.300,-0.250
'2:04.767',-0.300,-0.255
'2:04.769',-0.320,-0.275
'2:04.772',-0.335,-0.275
'2:04.775',-0.330,-0.270
'2:04.778',-0.340,-0.265
'2:04.781',-0.320,-0.250
'2:04.783',-0.310,-0.260
'2:04.786',-0.335,-0.260
'2:04.789',-0.335,-0.265
'2:04.792',-0.350,-0.270
'2:04.794',-0.335,-0.255
'2:04.797',-0.325,-0.250
'2:04.800',-0.330,-0.255
'2:04.803',-0.325,-0.255
'2:04.806',-0.330,-0.265
'2:04.808',-0.335,-0.265
'2:04.811',-0.330,-0.250
'2:04.814',-0.315,-0.250
'2:04.817',-0.310,-0.260
'2:04.819',-0.305,-0.270
'2:04.822',-0.320,-0.280
'2:04.825',-0.335,-0.275
'2:04.828',-0.330,-0.260
'2:04.831',-0.305,-0.245
'2:04.833',-0.305,-0.250
'2:04.836',-0.305,-0.260
'2:04.839',-0.320,-0.265
'2:04.842',-0.330,-0.265
'2:04.844',-0.315,-0.260
'2:04.847',-0.320,-0.245
'2:04.850',-0.315,-0.250
'2:04.853',-0.325,-0.245
'2:04.856',-0.325,-0.255
'2:04.858',-0.330,-0.255
'2:04.861',-0.305,-0.255
'2:04.864',-0.300,-0.250
'2:04.867',-0.295,-0.250
'2:04.869',-0.285,-0.260
'2:04.872',-0.270,-0.260
'2:04.875',-0.280,-0.250
'2:04.878',-0.270,-0.245
'2:04.881',-0.260,-0.230
'2:04.883',-0.255,-0.235
'2:04.886',-0.260,-0.240
'2:04.889',-0.250,-0.250
'2:04.892',-0.250,-0.245
'2:04.894',-0.240,-0.225
'2:04.897',-0.225,-0.205
'2:04.900',-0.210,-0.220
'2:04.903',-0.205,-0.220
'2:04.906',-0.215,-0.230
'2:04.908',-0.220,-0.240
'2:04.911',-0.220,-0.215
'2:04.914',-0.215,-0.205
'2:04.917',-0.240,-0.210
'2:04.919',-0.250,-0.195
'2:04.922',-0.260,-0.205
'2:04.925',-0.240,-0.200
'2:04.928',-0.240,-0.200
'2:04.931',-0.245,-0.195
'2:04.933',-0.245,-0.195
'2:04.936',-0.235,-0.200
'2:04.939',-0.225,-0.220
'2:04.942',-0.220,-0.235
'2:04.944',-0.215,-0.230
'2:04.947',-0.240,-0.225
'2:04.950',-0.250,-0.235
'2:04.953',-0.270,-0.245
'2:04.956',-0.295,-0.260
'2:04.958',-0.315,-0.255
'2:04.961',-0.340,-0.245
'2:04.964',-0.335,-0.225
'2:04.967',-0.335,-0.245
'2:04.969',-0.345,-0.250
'2:04.972',-0.345,-0.270
'2:04.975',-0.355,-0.270
'2:04.978',-0.345,-0.255
'2:04.981',-0.330,-0.245
'2:04.983',-0.335,-0.260
'2:04.986',-0.345,-0.260
'2:04.989',-0.360,-0.260
'2:04.992',-0.355,-0.255
'2:04.994',-0.355,-0.255
'2:04.997',-0.340,-0.260
'2:05.000',-0.340,-0.260
'2:05.003',-0.335,-0.265
'2:05.006',-0.340,-0.260
'2:05.008',-0.360,-0.280
'2:05.011',-0.350,-0.260
'2:05.014',-0.340,-0.255
'2:05.017',-0.345,-0.250
'2:05.019',-0.340,-0.265
'2:05.022',-0.350,-0.270
'2:05.025',-0.360,-0.270
'2:05.028',-0.360,-0.265
'2:05.031',-0.350,-0.260
'2:05.033',-0.350,-0.270
'2:05.036',-0.350,-0.285
'2:05.039',-0.370,-0.305
'2:05.042',-0.405,-0.340
'2:05.044',-0.435,-0.360
'2:05.047',-0.455,-0.370
'2:05.050',-0.470,-0.390
'2:05.053',-0.520,-0.385
'2:05.056',-0.565,-0.310
'2:05.058',-0.575,-0.205
'2:05.061',-0.500,-0.110
'2:05.064',-0.385,-0.020
'2:05.067',-0.245,0.040
'2:05.069',-0.100,0.110
'2:05.072',0.105,0.205
'2:05.075',0.350,0.325
'2:05.078',0.595,0.415
'2:05.081',0.780,0.420
'2:05.083',0.855,0.210
'2:05.086',0.760,-0.090
'2:05.089',0.510,-0.335
'2:05.092',0.115,-0.415
'2:05.094',-0.215,-0.380
'2:05.097',-0.400,-0.325
'2:05.100',-0.475,-0.305
'2:05.103',-0.485,-0.315
'2:05.106',-0.450,-0.310
'2:05.108',-0.420,-0.305
'2:05.111',-0.405,-0.290
'2:05.114',-0.390,-0.285
'2:05.117',-0.395,-0.290
'2:05.119',-0.395,-0.310
'2:05.122',-0.385,-0.305
'2:05.125',-0.390,-0.305
'2:05.128',-0.400,-0.300
'2:05.131',-0.400,-0.285
'2:05.133',-0.390,-0.295
'2:05.136',-0.395,-0.305
'2:05.139',-0.400,-0.315
'2:05.142',-0.415,-0.310
'2:05.144',-0.390,-0.305
'2:05.147',-0.385,-0.285
'2:05.150',-0.375,-0.290
'2:05.153',-0.380,-0.305
'2:05.156',-0.395,-0.310
'2:05.158',-0.410,-0.310
'2:05.161',-0.410,-0.295
'2:05.164',-0.405,-0.290
'2:05.167',-0.395,-0.300
'2:05.169',-0.390,-0.315
'2:05.172',-0.400,-0.325
'2:05.175',-0.420,-0.315
'2:05.178',-0.410,-0.310
'2:05.181',-0.400,-0.285
'2:05.183',-0.395,-0.295
'2:05.186',-0.405,-0.300
'2:05.189',-0.410,-0.310
'2:05.192',-0.415,-0.315
'2:05.194',-0.410,-0.310
'2:05.197',-0.405,-0.300
'2:05.200',-0.400,-0.300
'2:05.203',-0.395,-0.310
'2:05.206',-0.415,-0.305
'2:05.208',-0.415,-0.310
'2:05.211',-0.410,-0.300
'2:05.214',-0.410,-0.305
'2:05.217',-0.400,-0.295
'2:05.219',-0.395,-0.315
'2:05.222',-0.415,-0.305
'2:05.225',-0.420,-0.305
'2:05.228',-0.410,-0.295
'2:05.231',-0.400,-0.275
'2:05.233',-0.390,-0.295
'2:05.236',-0.400,-0.295
'2:05.239',-0.410,-0.310
'2:05.242',-0.410,-0.315
'2:05.244',-0.400,-0.305
'2:05.247',-0.395,-0.295
'2:05.250',-0.390,-0.300
'2:05.253',-0.395,-0.295
'2:05.256',-0.405,-0.315
'2:05.258',-0.400,-0.310
'2:05.261',-0.415,-0.305
'2:05.264',-0.410,-0.295
'2:05.267',-0.405,-0.290
'2:05.269',-0.395,-0.305
'2:05.272',-0.400,-0.320
'2:05.275',-0.410,-0.330
'2:05.278',-0.410,-0.320
'2:05.281',-0.405,-0.310
'2:05.283',-0.390,-0.305
'2:05.286',-0.395,-0.315
'2:05.289',-0.400,-0.320
'2:05.292',-0.400,-0.330
'2:05.294',-0.400,-0.330
'2:05.297',-0.405,-0.315
'2:05.300',-0.405,-0.330
'2:05.303',-0.415,-0.340
'2:05.306',-0.415,-0.350
'2:05.308',-0.420,-0.370
'2:05.311',-0.420,-0.345
'2:05.314',-0.415,-0.350
'2:05.317',-0.400,-0.355
'2:05.319',-0.415,-0.370
'2:05.322',-0.425,-0.390
'2:05.325',-0.440,-0.385
'2:05.328',-0.425,-0.375
'2:05.331',-0.410,-0.385
'2:05.333',-0.415,-0.400
'2:05.336',-0.420,-0.395
'2:05.339',-0.425,-0.415
'2:05.342',-0.435,-0.420
'2:05.344',-0.440,-0.420
'2:05.347',-0.435,-0.405
'2:05.350',-0.430,-0.415
'2:05.353',-0.440,-0.420
'2:05.356',-0.440,-0.435
'2:05.358',-0.455,-0.445
'2:05.361',-0.450,-0.440
'2:05.364',-0.455,-0.430
'2:05.367',-0.455,-0.420
'2:05.369',-0.445,-0.415
'2:05.372',-0.455,-0.415
'2:05.375',-0.455,-0.405
'2:05.378',-0.435,-0.380
'2:05.381',-0.415,-0.370
'2:05.383',-0.415,-0.360
'2:05.386',-0.390,-0.355
'2:05.389',-0.400,-0.350
'2:05.392',-0.405,-0.345
'2:05.394',-0.395,-0.315
'2:05.397',-0.375,-0.310
'2:05.400',-0.355,-0.300
'2:05.403',-0.345,-0.290
'2:05.406',-0.345,-0.300
'2:05.408',-0.340,-0.295
'2:05.411',-0.330,-0.285
'2:05.414',-0.315,-0.265
'2:05.417',-0.310,-0.260
'2:05.419',-0.335,-0.255
'2:05.422',-0.320,-0.270
'2:05.425',-0.340,-0.275
'2:05.428',-0.320,-0.270
'2:05.431',-0.320,-0.260
'2:05.433',-0.315,-0.255
'2:05.436',-0.295,-0.250
'2:05.439',-0.305,-0.255
'2:05.442',-0.310,-0.250
'2:05.444',-0.295,-0.240
'2:05.447',-0.285,-0.225
'2:05.450',-0.290,-0.245
'2:05.453',-0.295,-0.260
'2:05.456',-0.310,-0.260
'2:05.458',-0.310,-0.260
'2:05.461',-0.320,-0.255
'2:05.464',-0.305,-0.235
'2:05.467',-0.300,-0.260
'2:05.469',-0.305,-0.260
'2:05.472',-0.315,-0.265
'2:05.475',-0.330,-0.265
'2:05.478',-0.325,-0.270
'2:05.481',-0.320,-0.245
'2:05.483',-0.310,-0.265
'2:05.486',-0.305,-0.275
'2:05.489',-0.320,-0.280
'2:05.492',-0.330,-0.275
'2:05.494',-0.325,-0.260
'2:05.497',-0.325,-0.240
'2:05.500',-0.315,-0.255
'2:05.503',-0.325,-0.270
'2:05.506',-0.330,-0.285
'2:05.508',-0.330,-0.290
'2:05.511',-0.325,-0.270
'2:05.514',-0.310,-0.260
'2:05.517',-0.310,-0.265
'2:05.519',-0.310,-0.285
'2:05.522',-0.325,-0.295
'2:05.525',-0.345,-0.295
'2:05.528',-0.335,-0.295
'2:05.531',-0.345,-0.285
'2:05.533',-0.345,-0.280
'2:05.536',-0.345,-0.275
'2:05.539',-0.345,-0.280
'2:05.542',-0.350,-0.285
'2:05.544',-0.335,-0.280
'2:05.547',-0.330,-0.280
'2:05.550',-0.340,-0.275
'2:05.553',-0.345,-0.290
'2:05.556',-0.355,-0.290
'2:05.558',-0.355,-0.300
'2:05.561',-0.355,-0.290
'2:05.564',-0.345,-0.275
'2:05.567',-0.355,-0.295
'2:05.569',-0.355,-0.295
'2:05.572',-0.350,-0.300
'2:05.575',-0.370,-0.295
'2:05.578',-0.375,-0.290
'2:05.581',-0.350,-0.285
'2:05.583',-0.345,-0.295
'2:05.586',-0.355,-0.295
'2:05.589',-0.355,-0.300
'2:05.592',-0.365,-0.310
'2:05.594',-0.360,-0.295
'2:05.597',-0.355,-0.280
'2:05.600',-0.355,-0.290
'2:05.603',-0.360,-0.285
'2:05.606',-0.360,-0.295
'2:05.608',-0.370,-0.320
'2:05.611',-0.370,-0.290
'2:05.614',-0.355,-0.285
'2:05.617',-0.355,-0.285
'2:05.619',-0.370,-0.295
'2:05.622',-0.360,-0.295
'2:05.625',-0.365,-0.295
'2:05.628',-0.370,-0.285
'2:05.631',-0.350,-0.275
'2:05.633',-0.350,-0.285
'2:05.636',-0.350,-0.290
'2:05.639',-0.360,-0.295
'2:05.642',-0.365,-0.305
'2:05.644',-0.370,-0.295
'2:05.647',-0.360,-0.295
'2:05.650',-0.355,-0.290
'2:05.653',-0.345,-0.300
'2:05.656',-0.360,-0.305
'2:05.658',-0.370,-0.305
'2:05.661',-0.375,-0.290
'2:05.664',-0.365,-0.290
'2:05.667',-0.350,-0.305
'2:05.669',-0.345,-0.310
'2:05.672',-0.350,-0.320
'2:05.675',-0.365,-0.325
'2:05.678',-0.350,-0.305
'2:05.681',-0.345,-0.295
'2:05.683',-0.345,-0.300
'2:05.686',-0.320,-0.310
'2:05.689',-0.320,-0.310
'2:05.692',-0.315,-0.305
'2:05.694',-0.310,-0.300
'2:05.697',-0.295,-0.290
'2:05.700',-0.295,-0.290
'2:05.703',-0.295,-0.295
'2:05.706',-0.290,-0.295
'2:05.708',-0.290,-0.285
'2:05.711',-0.275,-0.275
'2:05.714',-0.270,-0.265
'2:05.717',-0.250,-0.265
'2:05.719',-0.255,-0.275
'2:05.722',-0.275,-0.275
'2:05.725',-0.280,-0.270
'2:05.728',-0.275,-0.270
'2:05.731',-0.275,-0.240
'2:05.733',-0.265,-0.245
'2:05.736',-0.275,-0.245
'2:05.739',-0.275,-0.260
'2:05.742',-0.280,-0.260
'2:05.744',-0.285,-0.250
'2:05.747',-0.290,-0.240
'2:05.750',-0.280,-0.240
'2:05.753',-0.265,-0.260
'2:05.756',-0.270,-0.275
'2:05.758',-0.260,-0.280
'2:05.761',-0.275,-0.280
'2:05.764',-0.285,-0.270
'2:05.767',-0.300,-0.265
'2:05.769',-0.325,-0.275
'2:05.772',-0.350,-0.275
'2:05.775',-0.375,-0.290
'2:05.778',-0.370,-0.290
'2:05.781',-0.375,-0.290
'2:05.783',-0.370,-0.300
'2:05.786',-0.390,-0.295
'2:05.789',-0.390,-0.310
'2:05.792',-0.410,-0.300
'2:05.794',-0.395,-0.295
'2:05.797',-0.380,-0.285
'2:05.800',-0.370,-0.295
'2:05.803',-0.385,-0.300
'2:05.806',-0.385,-0.305
'2:05.808',-0.400,-0.310
'2:05.811',-0.390,-0.290
'2:05.814',-0.390,-0.285
'2:05.817',-0.375,-0.290
'2:05.819',-0.385,-0.290
'2:05.822',-0.385,-0.310
'2:05.825',-0.395,-0.310
'2:05.828',-0.390,-0.295
'2:05.831',-0.380,-0.290
'2:05.833',-0.375,-0.290
'2:05.836',-0.375,-0.290
'2:05.839',-0.385,-0.290
'2:05.842',-0.390,-0.295
'2:05.844',-0.390,-0.295
'2:05.847',-0.385,-0.310
'2:05.850',-0.400,-0.335
'2:05.853',-0.440,-0.350
'2:05.856',-0.470,-0.370
'2:05.858',-0.500,-0.395
'2:05.861',-0.495,-0.410
'2:05.864',-0.505,-0.415
'2:05.867',-0.550,-0.390
'2:05.869',-0.595,-0.345
'2:05.872',-0.595,-0.255
'2:05.875',-0.525,-0.135
'2:05.878',-0.405,-0.035
'2:05.881',-0.280,0.025
'2:05.883',-0.145,0.085
'2:05.886',0.035,0.175
'2:05.889',0.275,0.275
'2:05.892',0.525,0.390
'2:05.894',0.745,0.450
'2:05.897',0.850,0.335
'2:05.900',0.815,0.030
'2:05.903',0.585,-0.290
'2:05.906',0.205,-0.450
'2:05.908',-0.175,-0.445
'2:05.911',-0.395,-0.370
'2:05.914',-0.480,-0.325
'2:05.917',-0.490,-0.320
'2:05.919',-0.470,-0.305
'2:05.922',-0.430,-0.310
'2:05.925',-0.425,-0.325
'2:05.928',-0.410,-0.310
'2:05.931',-0.410,-0.305
'2:05.933',-0.395,-0.300
'2:05.936',-0.400,-0.295
'2:05.939',-0.400,-0.310
'2:05.942',-0.415,-0.310
'2:05.944',-0.405,-0.305
'2:05.947',-0.405,-0.280
'2:05.950',-0.405,-0.280
'2:05.953',-0.410,-0.305
'2:05.956',-0.415,-0.310
'2:05.958',-0.420,-0.300
'2:05.961',-0.410,-0.285
'2:05.964',-0.410,-0.285
'2:05.967',-0.405,-0.295
'2:05.969',-0.395,-0.300
'2:05.972',-0.400,-0.315
'2:05.975',-0.410,-0.305
'2:05.978',-0.400,-0.290
'2:05.981',-0.405,-0.275
'2:05.983',-0.400,-0.285
'2:05.986',-0.400,-0.275
'2:05.989',-0.400,-0.290
'2:05.992',-0.410,-0.285
'2:05.994',-0.405,-0.275
'2:05.997',-0.395,-0.275
'2:06.000',-0.385,-0.280
'2:06.003',-0.405,-0.290
'2:06.006',-0.410,-0.290
'2:06.008',-0.415,-0.300
'2:06.011',-0.410,-0.290
'2:06.014',-0.400,-0.270
'2:06.017',-0.395,-0.270
'2:06.019',-0.395,-0.265
'2:06.022',-0.395,-0.295
'2:06.025',-0.410,-0.310
'2:06.028',-0.405,-0.295
'2:06.031',-0.395,-0.275
'2:06.033',-0.400,-0.275
'2:06.036',-0.390,-0.280
'2:06.039',-0.400,-0.285
'2:06.042',-0.415,-0.290
'2:06.044',-0.410,-0.285
'2:06.047',-0.405,-0.270
'2:06.050',-0.395,-0.275
'2:06.053',-0.405,-0.295
'2:06.056',-0.410,-0.300
'2:06.058',-0.425,-0.295
'2:06.061',-0.410,-0.280
'2:06.064',-0.420,-0.270
'2:06.067',-0.410,-0.285
'2:06.069',-0.410,-0.300
'2:06.072',-0.405,-0.305
'2:06.075',-0.410,-0.310
'2:06.078',-0.405,-0.290
'2:06.081',-0.405,-0.280
'2:06.083',-0.410,-0.295
'2:06.086',-0.385,-0.295
'2:06.089',-0.400,-0.300
'2:06.092',-0.410,-0.310
'2:06.094',-0.405,-0.310
'2:06.097',-0.390,-0.295
'2:06.100',-0.390,-0.295
'2:06.103',-0.380,-0.305
'2:06.106',-0.395,-0.320
'2:06.108',-0.410,-0.320
'2:06.111',-0.405,-0.315
'2:06.114',-0.395,-0.305
'2:06.117',-0.390,-0.330
'2:06.119',-0.400,-0.325
'2:06.122',-0.395,-0.360
'2:06.125',-0.415,-0.350
'2:06.128',-0.415,-0.345
'2:06.131',-0.410,-0.340
'2:06.133',-0.405,-0.355
'2:06.136',-0.410,-0.370
'2:06.139',-0.415,-0.385
'2:06.142',-0.425,-0.395
'2:06.144',-0.420,-0.380
'2:06.147',-0.425,-0.375
'2:06.150',-0.415,-0.390
'2:06.153',-0.425,-0.400
'2:06.156',-0.425,-0.405
'2:06.158',-0.435,-0.410
'2:06.161',-0.440,-0.410
'2:06.164',-0.425,-0.415
'2:06.167',-0.425,-0.420
'2:06.169',-0.425,-0.425
'2:06.172',-0.435,-0.440
'2:06.175',-0.450,-0.430
'2:06.178',-0.450,-0.410
'2:06.181',-0.440,-0.405
'2:06.183',-0.420,-0.400
'2:06.186',-0.425,-0.405
'2:06.189',-0.430,-0.410
'2:06.192',-0.430,-0.400
'2:06.194',-0.415,-0.380
'2:06.197',-0.410,-0.355
'2:06.200',-0.390,-0.345
'2:06.203',-0.395,-0.320
'2:06.206',-0.380,-0.325
'2:06.208',-0.380,-0.315
'2:06.211',-0.360,-0.295
'2:06.214',-0.340,-0.280
'2:06.217',-0.330,-0.265
'2:06.219',-0.330,-0.265
'2:06.222',-0.320,-0.265
'2:06.225',-0.335,-0.245
'2:06.228',-0.320,-0.230
'2:06.231',-0.295,-0.230
'2:06.233',-0.290,-0.235
'2:06.236',-0.290,-0.230
'2:06.239',-0.285,-0.245
'2:06.242',-0.295,-0.230
'2:06.244',-0.285,-0.215
'2:06.247',-0.280,-0.210
'2:06.250',-0.270,-0.210
'2:06.253',-0.265,-0.210
'2:06.256',-0.265,-0.235
'2:06.258',-0.285,-0.225
'2:06.261',-0.285,-0.225
'2:06.264',-0.270,-0.205
'2:06.267',-0.270,-0.215
'2:06.269',-0.270,-0.215
'2:06.272',-0.275,-0.235
'2:06.275',-0.290,-0.230
'2:06.278',-0.280,-0.220
'2:06.281',-0.265,-0.210
'2:06.283',-0.270,-0.225
'2:06.286',-0.275,-0.220
'2:06.289',-0.285,-0.230
'2:06.292',-0.295,-0.225
'2:06.294',-0.285,-0.220
'2:06.297',-0.290,-0.220
'2:06.300',-0.275,-0.215
'2:06.303',-0.280,-0.225
'2:06.306',-0.295,-0.235
'2:06.308',-0.305,-0.240
'2:06.311',-0.290,-0.225
'2:06.314',-0.280,-0.210
'2:06.317',-0.280,-0.215
'2:06.319',-0.285,-0.230
'2:06.322',-0.290,-0.245
'2:06.325',-0.305,-0.240
'2:06.328',-0.300,-0.240
'2:06.331',-0.295,-0.220
'2:06.333',-0.280,-0.235
'2:06.336',-0.285,-0.225
'2:06.339',-0.295,-0.245
'2:06.342',-0.305,-0.250
'2:06.344',-0.290,-0.245
'2:06.347',-0.290,-0.210
'2:06.350',-0.290,-0.220
'2:06.353',-0.310,-0.235
'2:06.356',-0.320,-0.260
'2:06.358',-0.310,-0.250
'2:06.361',-0.315,-0.255
'2:06.364',-0.310,-0.225
'2:06.367',-0.310,-0.230
'2:06.369',-0.320,-0.235
'2:06.372',-0.320,-0.240
'2:06.375',-0.325,-0.240
'2:06.378',-0.310,-0.250
'2:06.381',-0.310,-0.230
'2:06.383',-0.305,-0.245
'2:06.386',-0.315,-0.255
'2:06.389',-0.320,-0.260
'2:06.392',-0.330,-0.260
'2:06.394',-0.325,-0.245
'2:06.397',-0.315,-0.230
'2:06.400',-0.315,-0.240
'2:06.403',-0.315,-0.250
'2:06.406',-0.325,-0.255
'2:06.408',-0.320,-0.260
'2:06.411',-0.325,-0.250
'2:06.414',-0.315,-0.240
'2:06.417',-0.315,-0.245
'2:06.419',-0.310,-0.240
'2:06.422',-0.320,-0.265
'2:06.425',-0.325,-0.260
'2:06.428',-0.325,-0.260
'2:06.431',-0.315,-0.245
'2:06.433',-0.310,-0.255
'2:06.436',-0.310,-0.270
'2:06.439',-0.330,-0.260
'2:06.442',-0.340,-0.265
'2:06.444',-0.330,-0.250
'2:06.447',-0.310,-0.240
'2:06.450',-0.305,-0.230
'2:06.453',-0.315,-0.255
'2:06.456',-0.325,-0.265
'2:06.458',-0.335,-0.260
'2:06.461',-0.315,-0.255
'2:06.464',-0.310,-0.245
'2:06.467',-0.305,-0.240
'2:06.469',-0.310,-0.245
'2:06.472',-0.315,-0.245
'2:06.475',-0.320,-0.255
'2:06.478',-0.310,-0.255
'2:06.481',-0.305,-0.235
'2:06.483',-0.300,-0.245
'2:06.486',-0.310,-0.255
'2:06.489',-0.315,-0.260
'2:06.492',-0.325,-0.245
'2:06.494',-0.310,-0.235
'2:06.497',-0.300,-0.235
'2:06.500',-0.295,-0.235
'2:06.503',-0.300,-0.245
'2:06.506',-0.300,-0.250
'2:06.508',-0.310,-0.255
'2:06.511',-0.295,-0.240
'2:06.514',-0.280,-0.230
'2:06.517',-0.270,-0.240
'2:06.519',-0.260,-0.250
'2:06.522',-0.255,-0.250
'2:06.525',-0.265,-0.250
'2:06.528',-0.250,-0.255
'2:06.531',-0.250,-0.235
'2:06.533',-0.225,-0.230
'2:06.536',-0.235,-0.230
'2:06.539',-0.235,-0.235
'2:06.542',-0.235,-0.235
'2:06.544',-0.230,-0.225
'2:06.547',-0.215,-0.210
'2:06.550',-0.205,-0.210
'2:06.553',-0.190,-0.220
'2:06.556',-0.210,-0.220
'2:06.558',-0.215,-0.230
'2:06.561',-0.195,-0.210
'2:06.564',-0.185,-0.200
'2:06.567',-0.195,-0.195
'2:06.569',-0.210,-0.210
'2:06.572',-0.210,-0.210
'2:06.575',-0.230,-0.200
'2:06.578',-0.215,-0.190
'2:06.581',-0.210,-0.170
'2:06.583',-0.215,-0.185
'2:06.586',-0.215,-0.200
'2:06.589',-0.220,-0.205
'2:06.592',-0.230,-0.195
'2:06.594',-0.240,-0.195
'2:06.597',-0.220,-0.175
'2:06.600',-0.195,-0.180
'2:06.603',-0.185,-0.205
'2:06.606',-0.205,-0.215
'2:06.608',-0.230,-0.220
'2:06.611',-0.255,-0.215
'2:06.614',-0.255,-0.210
'2:06.617',-0.270,-0.200
'2:06.619',-0.285,-0.225
'2:06.622',-0.295,-0.225
'2:06.625',-0.320,-0.245
'2:06.628',-0.320,-0.230
'2:06.631',-0.330,-0.230
'2:06.633',-0.325,-0.240
'2:06.636',-0.330,-0.235
'2:06.639',-0.330,-0.240
'2:06.642',-0.340,-0.240
'2:06.644',-0.330,-0.230
'2:06.647',-0.335,-0.225
'2:06.650',-0.325,-0.235
'2:06.653',-0.325,-0.255
'2:06.656',-0.340,-0.260
'2:06.658',-0.345,-0.245
'2:06.661',-0.335,-0.235
'2:06.664',-0.325,-0.225
'2:06.667',-0.330,-0.230
'2:06.669',-0.340,-0.235
'2:06.672',-0.345,-0.240
'2:06.675',-0.335,-0.255
'2:06.678',-0.345,-0.245
'2:06.681',-0.330,-0.240
'2:06.683',-0.325,-0.235
'2:06.686',-0.330,-0.245
'2:06.689',-0.340,-0.250
'2:06.692',-0.355,-0.255
'2:06.694',-0.355,-0.260
'2:06.697',-0.360,-0.265
'2:06.700',-0.360,-0.305
'2:06.703',-0.405,-0.335
'2:06.706',-0.450,-0.360
'2:06.708',-0.475,-0.385
'2:06.711',-0.475,-0.395
'2:06.714',-0.510,-0.365
'2:06.717',-0.545,-0.290
'2:06.719',-0.530,-0.175
'2:06.722',-0.445,-0.035
'2:06.725',-0.315,0.075
'2:06.728',-0.155,0.190
'2:06.731',0.005,0.315
'2:06.733',0.210,0.430
'2:06.736',0.470,0.540
'2:06.739',0.720,0.655
'2:06.742',0.870,0.695
'2:06.744',0.960,0.570
'2:06.747',0.910,0.285
'2:06.750',0.650,-0.065
'2:06.753',0.230,-0.280
'2:06.756',-0.160,-0.315
'2:06.758',-0.405,-0.285
'2:06.761',-0.475,-0.260
'2:06.764',-0.440,-0.255
'2:06.767',-0.390,-0.255
'2:06.769',-0.350,-0.255
'2:06.772',-0.355,-0.280
'2:06.775',-0.370,-0.285
'2:06.778',-0.365,-0.285
'2:06.781',-0.365,-0.260
'2:06.783',-0.360,-0.270
'2:06.786',-0.350,-0.280
'2:06.789',-0.370,-0.290
'2:06.792',-0.380,-0.300
'2:06.794',-0.375,-0.290
'2:06.797',-0.360,-0.285
'2:06.800',-0.355,-0.290
'2:06.803',-0.365,-0.285
'2:06.806',-0.375,-0.300
'2:06.808',-0.380,-0.295
'2:06.811',-0.365,-0.280
'2:06.814',-0.360,-0.280
'2:06.817',-0.360,-0.285
'2:06.819',-0.365,-0.275
'2:06.822',-0.370,-0.300
'2:06.825',-0.385,-0.300
'2:06.828',-0.380,-0.295
'2:06.831',-0.375,-0.285
'2:06.833',-0.365,-0.295
'2:06.836',-0.370,-0.300
'2:06.839',-0.390,-0.295
'2:06.842',-0.390,-0.285
'2:06.844',-0.385,-0.280
'2:06.847',-0.380,-0.270
'2:06.850',-0.370,-0.265
'2:06.853',-0.365,-0.285
'2:06.856',-0.380,-0.295
'2:06.858',-0.395,-0.290
'2:06.861',-0.385,-0.290
'2:06.864',-0.370,-0.265
'2:06.867',-0.365,-0.270
'2:06.869',-0.365,-0.285
'2:06.872',-0.385,-0.285
'2:06.875',-0.385,-0.285
'2:06.878',-0.375,-0.280
'2:06.881',-0.365,-0.280
'2:06.883',-0.370,-0.285
'2:06.886',-0.375,-0.275
'2:06.889',-0.375,-0.285
'2:06.892',-0.375,-0.290
'2:06.894',-0.365,-0.290
'2:06.897',-0.370,-0.290
'2:06.900',-0.360,-0.295
'2:06.903',-0.365,-0.295
'2:06.906',-0.365,-0.295
'2:06.908',-0.375,-0.300
'2:06.911',-0.375,-0.295
'2:06.914',-0.365,-0.275
'2:06.917',-0.370,-0.280
'2:06.919',-0.370,-0.290
'2:06.922',-0.365,-0.310
'2:06.925',-0.380,-0.310
'2:06.928',-0.375,-0.305
'2:06.931',-0.380,-0.285
'2:06.933',-0.375,-0.290
'2:06.936',-0.370,-0.305
'2:06.939',-0.370,-0.310
'2:06.942',-0.380,-0.315
'2:06.944',-0.370,-0.310
'2:06.947',-0.365,-0.290
'2:06.950',-0.365,-0.300
'2:06.953',-0.360,-0.310
'2:06.956',-0.365,-0.335
'2:06.958',-0.370,-0.325
'2:06.961',-0.365,-0.320
'2:06.964',-0.360,-0.310
'2:06.967',-0.355,-0.320
'2:06.969',-0.350,-0.335
'2:06.972',-0.355,-0.340
'2:06.975',-0.370,-0.365
'2:06.978',-0.365,-0.340
'2:06.981',-0.360,-0.350
'2:06.983',-0.355,-0.355
'2:06.986',-0.360,-0.370
'2:06.989',-0.375,-0.375
'2:06.992',-0.385,-0.385
'2:06.994',-0.375,-0.390
'2:06.997',-0.385,-0.380
'2:07.000',-0.370,-0.395
'2:07.003',-0.385,-0.410
'2:07.006',-0.390,-0.415
'2:07.008',-0.395,-0.415
'2:07.011',-0.390,-0.410
'2:07.014',-0.395,-0.400
'2:07.017',-0.385,-0.415
'2:07.019',-0.390,-0.415
'2:07.022',-0.385,-0.425
'2:07.025',-0.395,-0.425
'2:07.028',-0.385,-0.410
'2:07.031',-0.380,-0.400
'2:07.033',-0.370,-0.395
'2:07.036',-0.365,-0.395
'2:07.039',-0.370,-0.405
'2:07.042',-0.370,-0.400
'2:07.044',-0.365,-0.380
'2:07.047',-0.355,-0.365
'2:07.050',-0.345,-0.360
'2:07.053',-0.345,-0.365
'2:07.056',-0.350,-0.350
'2:07.058',-0.350,-0.335
'2:07.061',-0.345,-0.315
'2:07.064',-0.320,-0.300
'2:07.067',-0.315,-0.295
'2:07.069',-0.310,-0.290
'2:07.072',-0.330,-0.275
'2:07.075',-0.315,-0.270
'2:07.078',-0.310,-0.260
'2:07.081',-0.300,-0.230
'2:07.083',-0.295,-0.230
'2:07.086',-0.290,-0.230
'2:07.089',-0.290,-0.225
'2:07.092',-0.305,-0.225
'2:07.094',-0.285,-0.220
'2:07.097',-0.280,-0.200
'2:07.100',-0.265,-0.210
'2:07.103',-0.265,-0.205
'2:07.106',-0.270,-0.210
'2:07.108',-0.280,-0.210
'2:07.111',-0.265,-0.210
'2:07.114',-0.265,-0.175
'2:07.117',-0.255,-0.205
'2:07.119',-0.255,-0.205
'2:07.122',-0.260,-0.205
'2:07.125',-0.275,-0.215
'2:07.128',-0.270,-0.210
'2:07.131',-0.275,-0.195
'2:07.133',-0.255,-0.205
'2:07.136',-0.265,-0.205
'2:07.139',-0.270,-0.215
'2:07.142',-0.280,-0.220
'2:07.144',-0.275,-0.215
'2:07.147',-0.270,-0.205
'2:07.150',-0.275,-0.210
'2:07.153',-0.285,-0.215
'2:07.156',-0.285,-0.230
'2:07.158',-0.300,-0.225
'2:07.161',-0.290,-0.220
'2:07.164',-0.285,-0.210
'2:07.167',-0.295,-0.210
'2:07.169',-0.290,-0.225
'2:07.172',-0.295,-0.220
'2:07.175',-0.315,-0.240
'2:07.178',-0.305,-0.220
'2:07.181',-0.300,-0.205
'2:07.183',-0.295,-0.220
'2:07.186',-0.300,-0.225
'2:07.189',-0.310,-0.240
'2:07.192',-0.320,-0.245
'2:07.194',-0.310,-0.225
'2:07.197',-0.295,-0.220
'2:07.200',-0.295,-0.225
'2:07.203',-0.295,-0.240
'2:07.206',-0.310,-0.250
'2:07.208',-0.305,-0.255
'2:07.211',-0.310,-0.250
'2:07.214',-0.300,-0.235
'2:07.217',-0.295,-0.240
'2:07.219',-0.305,-0.250
'2:07.222',-0.315,-0.260
'2:07.225',-0.320,-0.255
'2:07.228',-0.315,-0.245
'2:07.231',-0.305,-0.245
'2:07.233',-0.305,-0.245
'2:07.236',-0.320,-0.250
'2:07.239',-0.330,-0.255
'2:07.242',-0.335,-0.255
'2:07.244',-0.325,-0.270
'2:07.247',-0.330,-0.255
'2:07.250',-0.325,-0.245
'2:07.253',-0.325,-0.250
'2:07.256',-0.330,-0.250
'2:07.258',-0.340,-0.250
'2:07.261',-0.340,-0.250
'2:07.264',-0.330,-0.245
'2:07.267',-0.330,-0.250
'2:07.269',-0.335,-0.265
'2:07.272',-0.335,-0.270
'2:07.275',-0.345,-0.265
'2:07.278',-0.335,-0.250
'2:07.281',-0.325,-0.245
'2:07.283',-0.310,-0.245
'2:07.286',-0.325,-0.250
'2:07.289',-0.330,-0.270
'2:07.292',-0.340,-0.260
'2:07.294',-0.340,-0.255
'2:07.297',-0.325,-0.240
'2:07.300',-0.320,-0.245
'2:07.303',-0.335,-0.245
'2:07.306',-0.335,-0.255
'2:07.308',-0.345,-0.255
'2:07.311',-0.340,-0.250
'2:07.314',-0.320,-0.235
'2:07.317',-0.325,-0.245
'2:07.319',-0.320,-0.240
'2:07.322',-0.330,-0.260
'2:07.325',-0.340,-0.250
'2:07.328',-0.340,-0.255
'2:07.331',-0.330,-0.225
'2:07.333',-0.315,-0.230
'2:07.336',-0.320,-0.240
'2:07.339',-0.340,-0.260
'2:07.342',-0.340,-0.245
'2:07.344',-0.330,-0.225
'2:07.347',-0.315,-0.230
'2:07.350',-0.315,-0.235
'2:07.353',-0.305,-0.250
'2:07.356',-0.310,-0.250
'2:07.358',-0.315,-0.260
'2:07.361',-0.300,-0.245
'2:07.364',-0.275,-0.235
'2:07.367',-0.250,-0.225
'2:07.369',-0.255,-0.240
'2:07.372',-0.255,-0.235
'2:07.375',-0.270,-0.250
'2:07.378',-0.265,-0.220
'2:07.381',-0.245,-0.220
'2:07.383',-0.240,-0.215
'2:07.386',-0.225,-0.220
'2:07.389',-0.220,-0.220
'2:07.392',-0.225,-0.215
'2:07.394',-0.220,-0.195
'2:07.397',-0.220,-0.205
'2:07.400',-0.215,-0.205
'2:07.403',-0.215,-0.210
'2:07.406',-0.230,-0.205
'2:07.408',-0.250,-0.210
'2:07.411',-0.240,-0.185
'2:07.414',-0.235,-0.175
'2:07.417',-0.235,-0.180
'2:07.419',-0.235,-0.190
'2:07.422',-0.255,-0.200
'2:07.425',-0.265,-0.210
'2:07.428',-0.240,-0.195
'2:07.431',-0.220,-0.200
'2:07.433',-0.210,-0.215
'2:07.436',-0.240,-0.215
'2:07.439',-0.275,-0.235
'2:07.442',-0.300,-0.230
'2:07.444',-0.305,-0.225
'2:07.447',-0.315,-0.210
'2:07.450',-0.320,-0.225
'2:07.453',-0.330,-0.230
'2:07.456',-0.350,-0.230
'2:07.458',-0.360,-0.250
'2:07.461',-0.370,-0.245
'2:07.464',-0.355,-0.230
'2:07.467',-0.350,-0.235
'2:07.469',-0.345,-0.250
'2:07.472',-0.345,-0.260
'2:07.475',-0.350,-0.270
'2:07.478',-0.345,-0.255
'2:07.481',-0.355,-0.250
'2:07.483',-0.355,-0.250
'2:07.486',-0.355,-0.265
'2:07.489',-0.360,-0.255
'2:07.492',-0.380,-0.260
'2:07.494',-0.375,-0.255
'2:07.497',-0.370,-0.245
'2:07.500',-0.360,-0.245
'2:07.503',-0.355,-0.250
'2:07.506',-0.365,-0.265
'2:07.508',-0.370,-0.265
'2:07.511',-0.365,-0.250
'2:07.514',-0.375,-0.245
'2:07.517',-0.370,-0.255
'2:07.519',-0.370,-0.255
'2:07.522',-0.395,-0.270
'2:07.525',-0.405,-0.280
'2:07.528',-0.405,-0.290
'2:07.531',-0.410,-0.305
'2:07.533',-0.445,-0.335
'2:07.536',-0.475,-0.385
'2:07.539',-0.520,-0.425
'2:07.542',-0.565,-0.415
'2:07.544',-0.600,-0.325
'2:07.547',-0.570,-0.190
'2:07.550',-0.490,-0.065
'2:07.553',-0.335,0.030
'2:07.556',-0.180,0.110
'2:07.558',0.030,0.220
'2:07.561',0.340,0.360
'2:07.564',0.610,0.460
'2:07.567',0.785,0.450
'2:07.569',0.795,0.235
'2:07.572',0.620,-0.100
'2:07.575',0.260,-0.365
'2:07.578',-0.145,-0.400
'2:07.581',-0.405,-0.320
'2:07.583',-0.500,-0.295
'2:07.586',-0.485,-0.290
'2:07.589',-0.455,-0.290
'2:07.592',-0.420,-0.300
'2:07.594',-0.425,-0.300
'2:07.597',-0.410,-0.285
'2:07.600',-0.415,-0.285
'2:07.603',-0.400,-0.295
'2:07.606',-0.415,-0.305
'2:07.608',-0.430,-0.310
'2:07.611',-0.425,-0.295
'2:07.614',-0.425,-0.285
'2:07.617',-0.425,-0.300
'2:07.619',-0.420,-0.305
'2:07.622',-0.420,-0.305
'2:07.625',-0.430,-0.320
'2:07.628',-0.430,-0.305
'2:07.631',-0.415,-0.300
'2:07.633',-0.410,-0.290
'2:07.636',-0.405,-0.310
'2:07.639',-0.410,-0.305
'2:07.642',-0.415,-0.315
'2:07.644',-0.425,-0.310
'2:07.647',-0.415,-0.310
'2:07.650',-0.410,-0.300
'2:07.653',-0.415,-0.300
'2:07.656',-0.430,-0.310
'2:07.658',-0.445,-0.315
'2:07.661',-0.435,-0.300
'2:07.664',-0.425,-0.290
'2:07.667',-0.415,-0.305
'2:07.669',-0.425,-0.310
'2:07.672',-0.435,-0.320
'2:07.675',-0.440,-0.310
'2:07.678',-0.440,-0.310
'2:07.681',-0.435,-0.300
'2:07.683',-0.415,-0.305
'2:07.686',-0.420,-0.305
'2:07.689',-0.430,-0.320
'2:07.692',-0.435,-0.325
'2:07.694',-0.430,-0.310
'2:07.697',-0.425,-0.305
'2:07.700',-0.405,-0.305
'2:07.703',-0.415,-0.310
'2:07.706',-0.430,-0.315
'2:07.708',-0.425,-0.305
'2:07.711',-0.420,-0.285
'2:07.714',-0.410,-0.290
'2:07.717',-0.405,-0.305
'2:07.719',-0.405,-0.310
'2:07.722',-0.425,-0.330
'2:07.725',-0.435,-0.335
'2:07.728',-0.425,-0.325
'2:07.731',-0.420,-0.310
'2:07.733',-0.415,-0.305
'2:07.736',-0.425,-0.310
'2:07.739',-0.430,-0.320
'2:07.742',-0.445,-0.335
'2:07.744',-0.445,-0.330
'2:07.747',-0.430,-0.320
'2:07.750',-0.420,-0.330
'2:07.753',-0.425,-0.335
'2:07.756',-0.425,-0.350
'2:07.758',-0.440,-0.345
'2:07.761',-0.430,-0.340
'2:07.764',-0.425,-0.335
'2:07.767',-0.420,-0.345
'2:07.769',-0.420,-0.350
'2:07.772',-0.420,-0.380
'2:07.775',-0.435,-0.370
'2:07.778',-0.435,-0.365
'2:07.781',-0.425,-0.360
'2:07.783',-0.420,-0.380
'2:07.786',-0.420,-0.390
'2:07.789',-0.430,-0.395
'2:07.792',-0.430,-0.400
'2:07.794',-0.420,-0.395
'2:07.797',-0.425,-0.385
'2:07.800',-0.435,-0.415
'2:07.803',-0.440,-0.415
'2:07.806',-0.440,-0.435
'2:07.808',-0.465,-0.440
'2:07.811',-0.460,-0.435
'2:07.814',-0.455,-0.450
'2:07.817',-0.450,-0.435
'2:07.819',-0.450,-0.440
'2:07.822',-0.455,-0.440
'2:07.825',-0.465,-0.450
'2:07.828',-0.455,-0.435
'2:07.831',-0.455,-0.440
'2:07.833',-0.455,-0.425
'2:07.836',-0.460,-0.445
'2:07.839',-0.455,-0.445
'2:07.842',-0.470,-0.430
'2:07.844',-0.460,-0.420
'2:07.847',-0.450,-0.410
'2:07.850',-0.435,-0.390
'2:07.853',-0.440,-0.395
'2:07.856',-0.420,-0.390
'2:07.858',-0.415,-0.375
'2:07.861',-0.395,-0.355
'2:07.864',-0.375,-0.335
'2:07.867',-0.370,-0.320
'2:07.869',-0.375,-0.310
'2:07.872',-0.370,-0.320
'2:07.875',-0.370,-0.310
'2:07.878',-0.355,-0.300
'2:07.881',-0.350,-0.275
'2:07.883',-0.335,-0.280
'2:07.886',-0.345,-0.290
'2:07.889',-0.340,-0.295
'2:07.892',-0.360,-0.290
'2:07.894',-0.340,-0.270
'2:07.897',-0.330,-0.270
'2:07.900',-0.330,-0.280
'2:07.903',-0.335,-0.290
'2:07.906',-0.350,-0.300
'2:07.908',-0.355,-0.300
'2:07.911',-0.350,-0.285
'2:07.914',-0.335,-0.270
'2:07.917',-0.320,-0.260
'2:07.919',-0.325,-0.270
'2:07.922',-0.330,-0.285
'2:07.925',-0.345,-0.290
'2:07.928',-0.345,-0.295
'2:07.931',-0.340,-0.275
'2:07.933',-0.340,-0.285
'2:07.936',-0.340,-0.290
'2:07.939',-0.340,-0.280
'2:07.942',-0.355,-0.295
'2:07.944',-0.340,-0.285
'2:07.947',-0.325,-0.275
'2:07.950',-0.325,-0.275
'2:07.953',-0.330,-0.285
'2:07.956',-0.335,-0.290
'2:07.958',-0.355,-0.280
'2:07.961',-0.355,-0.280
'2:07.964',-0.365,-0.275
'2:07.967',-0.350,-0.295
'2:07.969',-0.355,-0.290
'2:07.972',-0.360,-0.300
'2:07.975',-0.365,-0.310
'2:07.978',-0.365,-0.285
'2:07.981',-0.360,-0.290
'2:07.983',-0.355,-0.295
'2:07.986',-0.350,-0.275
'2:07.989',-0.360,-0.310
'2:07.992',-0.370,-0.315
'2:07.994',-0.370,-0.305
'2:07.997',-0.370,-0.305
'2:08.000',-0.360,-0.310
'2:08.003',-0.375,-0.310
'2:08.006',-0.390,-0.330
'2:08.008',-0.385,-0.315
'2:08.011',-0.380,-0.300
'2:08.014',-0.365,-0.305
'2:08.017',-0.370,-0.325
'2:08.019',-0.380,-0.320
'2:08.022',-0.400,-0.335
'2:08.025',-0.400,-0.335
'2:08.028',-0.395,-0.330
'2:08.031',-0.395,-0.325
'2:08.033',-0.380,-0.310
'2:08.036',-0.375,-0.330
'2:08.039',-0.385,-0.340
'2:08.042',-0.390,-0.345
'2:08.044',-0.390,-0.315
'2:08.047',-0.375,-0.310
'2:08.050',-0.370,-0.310
'2:08.053',-0.380,-0.320
'2:08.056',-0.370,-0.330
'2:08.058',-0.395,-0.335
'2:08.061',-0.395,-0.335
'2:08.064',-0.395,-0.330
'2:08.067',-0.390,-0.335
'2:08.069',-0.390,-0.345
'2:08.072',-0.395,-0.345
'2:08.075',-0.410,-0.340
'2:08.078',-0.405,-0.320
'2:08.081',-0.390,-0.310
'2:08.083',-0.375,-0.315
'2:08.086',-0.380,-0.325
'2:08.089',-0.395,-0.345
'2:08.092',-0.405,-0.345
'2:08.094',-0.395,-0.325
'2:08.097',-0.395,-0.335
'2:08.100',-0.385,-0.325
'2:08.103',-0.390,-0.325
'2:08.106',-0.390,-0.320
'2:08.108',-0.395,-0.330
'2:08.111',-0.385,-0.330
'2:08.114',-0.385,-0.315
'2:08.117',-0.375,-0.320
'2:08.119',-0.400,-0.325
'2:08.122',-0.400,-0.345
'2:08.125',-0.405,-0.340
'2:08.128',-0.395,-0.330
'2:08.131',-0.390,-0.330
'2:08.133',-0.375,-0.325
'2:08.136',-0.360,-0.335
'2:08.139',-0.355,-0.330
'2:08.142',-0.355,-0.330
'2:08.144',-0.345,-0.325
'2:08.147',-0.350,-0.315
'2:08.150',-0.340,-0.330
'2:08.153',-0.340,-0.320
'2:08.156',-0.335,-0.320
'2:08.158',-0.330,-0.325
'2:08.161',-0.320,-0.295
'2:08.164',-0.305,-0.280
'2:08.167',-0.300,-0.280
'2:08.169',-0.295,-0.300
'2:08.172',-0.300,-0.310
'2:08.175',-0.305,-0.300
'2:08.178',-0.315,-0.295
'2:08.181',-0.305,-0.295
'2:08.183',-0.300,-0.295
'2:08.186',-0.305,-0.295
'2:08.189',-0.315,-0.295
'2:08.192',-0.320,-0.275
'2:08.194',-0.315,-0.265
'2:08.197',-0.315,-0.260
'2:08.200',-0.305,-0.280
'2:08.203',-0.325,-0.280
'2:08.206',-0.345,-0.295
'2:08.208',-0.355,-0.290
'2:08.211',-0.310,-0.290
'2:08.214',-0.295,-0.295
'2:08.217',-0.300,-0.300
'2:08.219',-0.340,-0.315
'2:08.222',-0.370,-0.330
'2:08.225',-0.390,-0.325
'2:08.228',-0.410,-0.305
'2:08.231',-0.410,-0.310
'2:08.233',-0.415,-0.320
'2:08.236',-0.410,-0.330
'2:08.239',-0.425,-0.345
'2:08.242',-0.435,-0.340
'2:08.244',-0.425,-0.340
'2:08.247',-0.410,-0.320
'2:08.250',-0.415,-0.315
'2:08.253',-0.420,-0.340
'2:08.256',-0.425,-0.335
'2:08.258',-0.440,-0.350
'2:08.261',-0.430,-0.345
'2:08.264',-0.435,-0.335
'2:08.267',-0.420,-0.335
'2:08.269',-0.420,-0.335
'2:08.272',-0.435,-0.335
'2:08.275',-0.440,-0.345
'2:08.278',-0.440,-0.340
'2:08.281',-0.435,-0.330
'2:08.283',-0.425,-0.330
'2:08.286',-0.425,-0.340
'2:08.289',-0.445,-0.360
'2:08.292',-0.455,-0.365
'2:08.294',-0.465,-0.385
'2:08.297',-0.485,-0.390
'2:08.300',-0.510,-0.415
'2:08.303',-0.530,-0.440
'2:08.306',-0.560,-0.480
'2:08.308',-0.600,-0.505
'2:08.311',-0.655,-0.505
'2:08.314',-0.675,-0.455
'2:08.317',-0.665,-0.405
'2:08.319',-0.610,-0.310
'2:08.322',-0.555,-0.230
'2:08.325',-0.470,-0.135
'2:08.328',-0.360,-0.065
'2:08.331',-0.235,-0.010
'2:08.333',-0.055,0.065
'2:08.336',0.205,0.200
'2:08.339',0.495,0.315
'2:08.342',0.715,0.385
'2:08.344',0.825,0.275
'2:08.347',0.740,-0.020
'2:08.350',0.415,-0.370
'2:08.353',-0.025,-0.520
'2:08.356',-0.375,-0.495
'2:08.358',-0.545,-0.415
'2:08.361',-0.570,-0.385
'2:08.364',-0.540,-0.355
'2:08.367',-0.485,-0.350
'2:08.369',-0.470,-0.350
'2:08.372',-0.460,-0.370
'2:08.375',-0.470,-0.375
'2:08.378',-0.475,-0.365
'2:08.381',-0.455,-0.355
'2:08.383',-0.445,-0.355
'2:08.386',-0.460,-0.355
'2:08.389',-0.465,-0.360
'2:08.392',-0.470,-0.365
'2:08.394',-0.470,-0.360
'2:08.397',-0.465,-0.340
'2:08.400',-0.460,-0.345
'2:08.403',-0.465,-0.345
'2:08.406',-0.460,-0.350
'2:08.408',-0.470,-0.355
'2:08.411',-0.470,-0.335
'2:08.414',-0.465,-0.345
'2:08.417',-0.460,-0.335
'2:08.419',-0.455,-0.355
'2:08.422',-0.465,-0.350
'2:08.425',-0.475,-0.350
'2:08.428',-0.470,-0.340
'2:08.431',-0.460,-0.325
'2:08.433',-0.440,-0.340
'2:08.436',-0.455,-0.345
'2:08.439',-0.460,-0.340
'2:08.442',-0.465,-0.350
'2:08.444',-0.470,-0.340
'2:08.447',-0.455,-0.330
'2:08.450',-0.440,-0.330
'2:08.453',-0.445,-0.335
'2:08.456',-0.455,-0.335
'2:08.458',-0.465,-0.340
'2:08.461',-0.460,-0.340
'2:08.464',-0.450,-0.330
'2:08.467',-0.450,-0.330
'2:08.469',-0.460,-0.340
'2:08.472',-0.455,-0.340
'2:08.475',-0.470,-0.335
'2:08.478',-0.460,-0.340
'2:08.481',-0.460,-0.325
'2:08.483',-0.465,-0.325
'2:08.486',-0.460,-0.345
'2:08.489',-0.475,-0.345
'2:08.492',-0.470,-0.345
'2:08.494',-0.475,-0.325
'2:08.497',-0.455,-0.315
'2:08.500',-0.450,-0.330
'2:08.503',-0.455,-0.330
'2:08.506',-0.455,-0.355
'2:08.508',-0.465,-0.355
'2:08.511',-0.445,-0.330
'2:08.514',-0.435,-0.330
'2:08.517',-0.425,-0.340
'2:08.519',-0.435,-0.345
'2:08.522',-0.440,-0.365
'2:08.525',-0.445,-0.370
'2:08.528',-0.445,-0.355
'2:08.531',-0.440,-0.345
'2:08.533',-0.445,-0.360
'2:08.536',-0.445,-0.365
'2:08.539',-0.450,-0.375
'2:08.542',-0.455,-0.385
'2:08.544',-0.460,-0.380
'2:08.547',-0.450,-0.375
'2:08.550',-0.450,-0.385
'2:08.553',-0.450,-0.385
'2:08.556',-0.465,-0.410
'2:08.558',-0.475,-0.405
'2:08.561',-0.475,-0.415
'2:08.564',-0.485,-0.410
'2:08.567',-0.470,-0.420
'2:08.569',-0.465,-0.430
'2:08.572',-0.470,-0.445
'2:08.575',-0.475,-0.435
'2:08.578',-0.480,-0.435
'2:08.581',-0.480,-0.425
'2:08.583',-0.465,-0.440
'2:08.586',-0.480,-0.450
'2:08.589',-0.485,-0.460
'2:08.592',-0.500,-0.460
'2:08.594',-0.495,-0.460
'2:08.597',-0.485,-0.450
'2:08.600',-0.480,-0.440
'2:08.603',-0.480,-0.445
'2:08.606',-0.490,-0.440
'2:08.608',-0.485,-0.425
'2:08.611',-0.475,-0.420
'2:08.614',-0.465,-0.385
'2:08.617',-0.450,-0.380
'2:08.619',-0.450,-0.380
'2:08.622',-0.445,-0.360
'2:08.625',-0.440,-0.360
'2:08.628',-0.415,-0.320
'2:08.631',-0.415,-0.310
'2:08.633',-0.385,-0.305
'2:08.636',-0.370,-0.295
'2:08.639',-0.380,-0.305
'2:08.642',-0.385,-0.280
'2:08.644',-0.370,-0.265
'2:08.647',-0.355,-0.255
'2:08.650',-0.345,-0.255
'2:08.653',-0.335,-0.250
'2:08.656',-0.340,-0.265
'2:08.658',-0.350,-0.265
'2:08.661',-0.350,-0.255
'2:08.664',-0.350,-0.240
'2:08.667',-0.330,-0.240
'2:08.669',-0.330,-0.245
'2:08.672',-0.335,-0.245
'2:08.675',-0.340,-0.255
'2:08.678',-0.330,-0.260
'2:08.681',-0.325,-0.250
'2:08.683',-0.310,-0.245
'2:08.686',-0.320,-0.245
'2:08.689',-0.330,-0.255
'2:08.692',-0.340,-0.265
'2:08.694',-0.340,-0.245
'2:08.697',-0.335,-0.240
'2:08.700',-0.335,-0.250
'2:08.703',-0.335,-0.260
'2:08.706',-0.335,-0.275
'2:08.708',-0.345,-0.285
'2:08.711',-0.345,-0.275
'2:08.714',-0.345,-0.250
'2:08.717',-0.330,-0.255
'2:08.719',-0.335,-0.260
'2:08.722',-0.345,-0.265
'2:08.725',-0.360,-0.280
'2:08.728',-0.345,-0.265
'2:08.731',-0.340,-0.260
'2:08.733',-0.335,-0.275
'2:08.736',-0.330,-0.265
'2:08.739',-0.335,-0.275
'2:08.742',-0.355,-0.285
'2:08.744',-0.355,-0.275
'2:08.747',-0.340,-0.270
'2:08.750',-0.335,-0.265
'2:08.753',-0.345,-0.275
'2:08.756',-0.340,-0.285
'2:08.758',-0.355,-0.290
'2:08.761',-0.355,-0.275
'2:08.764',-0.350,-0.265
'2:08.767',-0.340,-0.275
'2:08.769',-0.355,-0.285
'2:08.772',-0.360,-0.280
'2:08.775',-0.370,-0.290
'2:08.778',-0.375,-0.295
'2:08.781',-0.355,-0.275
'2:08.783',-0.355,-0.265
'2:08.786',-0.355,-0.285
'2:08.789',-0.370,-0.290
'2:08.792',-0.375,-0.300
'2:08.794',-0.375,-0.290
'2:08.797',-0.365,-0.270
'2:08.800',-0.360,-0.275
'2:08.803',-0.370,-0.280
'2:08.806',-0.365,-0.295
'2:08.808',-0.385,-0.300
'2:08.811',-0.370,-0.295
'2:08.814',-0.375,-0.280
'2:08.817',-0.360,-0.280
'2:08.819',-0.365,-0.285
'2:08.822',-0.365,-0.285
'2:08.825',-0.375,-0.290
'2:08.828',-0.370,-0.285
'2:08.831',-0.365,-0.280
'2:08.833',-0.355,-0.270
'2:08.836',-0.355,-0.285
'2:08.839',-0.365,-0.295
'2:08.842',-0.365,-0.285
'2:08.844',-0.370,-0.275
'2:08.847',-0.365,-0.265
'2:08.850',-0.355,-0.280
'2:08.853',-0.350,-0.285
'2:08.856',-0.370,-0.295
'2:08.858',-0.375,-0.295
'2:08.861',-0.375,-0.285
'2:08.864',-0.355,-0.270
'2:08.867',-0.345,-0.280
'2:08.869',-0.355,-0.285
'2:08.872',-0.360,-0.295
'2:08.875',-0.380,-0.295
'2:08.878',-0.370,-0.275
'2:08.881',-0.365,-0.270
'2:08.883',-0.360,-0.265
'2:08.886',-0.360,-0.280
'2:08.889',-0.370,-0.285
'2:08.892',-0.365,-0.290
'2:08.894',-0.370,-0.270
'2:08.897',-0.365,-0.270
'2:08.900',-0.350,-0.265
'2:08.903',-0.345,-0.270
'2:08.906',-0.355,-0.285
'2:08.908',-0.360,-0.290
'2:08.911',-0.340,-0.280
'2:08.914',-0.325,-0.270
'2:08.917',-0.290,-0.275
'2:08.919',-0.295,-0.270
'2:08.922',-0.290,-0.280
'2:08.925',-0.300,-0.280
'2:08.928',-0.290,-0.265
'2:08.931',-0.280,-0.260
'2:08.933',-0.265,-0.260
'2:08.936',-0.265,-0.260
'2:08.939',-0.260,-0.255
'2:08.942',-0.275,-0.245
'2:08.944',-0.255,-0.230
'2:08.947',-0.250,-0.235
'2:08.950',-0.250,-0.235
'2:08.953',-0.250,-0.230
'2:08.956',-0.270,-0.235
'2:08.958',-0.285,-0.225
'2:08.961',-0.280,-0.215
'2:08.964',-0.265,-0.205
'2:08.967',-0.260,-0.215
'2:08.969',-0.270,-0.220
'2:08.972',-0.305,-0.230
'2:08.975',-0.305,-0.220
'2:08.978',-0.290,-0.225
'2:08.981',-0.255,-0.220
'2:08.983',-0.225,-0.235
'2:08.986',-0.245,-0.240
'2:08.989',-0.270,-0.250
'2:08.992',-0.315,-0.260
'2:08.994',-0.325,-0.255
'2:08.997',-0.325,-0.255
'2:09.000',-0.330,-0.255
'2:09.003',-0.345,-0.255
'2:09.006',-0.360,-0.280
'2:09.008',-0.375,-0.280
'2:09.011',-0.375,-0.270
'2:09.014',-0.375,-0.260
'2:09.017',-0.360,-0.270
'2:09.019',-0.370,-0.280
'2:09.022',-0.375,-0.290
'2:09.025',-0.375,-0.280
'2:09.028',-0.375,-0.265
'2:09.031',-0.385,-0.265
'2:09.033',-0.385,-0.270
'2:09.036',-0.380,-0.270
'2:09.039',-0.390,-0.300
'2:09.042',-0.395,-0.305
'2:09.044',-0.390,-0.290
'2:09.047',-0.400,-0.275
'2:09.050',-0.395,-0.275
'2:09.053',-0.380,-0.280
'2:09.056',-0.395,-0.290
'2:09.058',-0.400,-0.290
'2:09.061',-0.400,-0.295
'2:09.064',-0.410,-0.310
'2:09.067',-0.425,-0.335
'2:09.069',-0.455,-0.370
'2:09.072',-0.500,-0.395
'2:09.075',-0.535,-0.435
'2:09.078',-0.565,-0.435
'2:09.081',-0.590,-0.360
'2:09.083',-0.580,-0.230
'2:09.086',-0.485,-0.080
'2:09.089',-0.350,0.030
'2:09.092',-0.200,0.150
'2:09.094',0.000,0.295
'2:09.097',0.255,0.430
'2:09.100',0.550,0.565
'2:09.103',0.800,0.680
'2:09.106',0.940,0.710
'2:09.108',0.955,0.605
'2:09.111',0.840,0.355
'2:09.114',0.580,0.020
'2:09.117',0.225,-0.265
'2:09.119',-0.115,-0.405
'2:09.122',-0.380,-0.415
'2:09.125',-0.535,-0.365
'2:09.128',-0.565,-0.335
'2:09.131',-0.530,-0.320
'2:09.133',-0.475,-0.305
'2:09.136',-0.420,-0.305
'2:09.139',-0.420,-0.315
'2:09.142',-0.435,-0.320
'2:09.144',-0.440,-0.315
'2:09.147',-0.425,-0.310
'2:09.150',-0.425,-0.315
'2:09.153',-0.425,-0.320
'2:09.156',-0.430,-0.340
'2:09.158',-0.450,-0.330
'2:09.161',-0.440,-0.320
'2:09.164',-0.430,-0.310
'2:09.167',-0.425,-0.320
'2:09.169',-0.425,-0.335
'2:09.172',-0.445,-0.335
'2:09.175',-0.460,-0.345
'2:09.178',-0.450,-0.345
'2:09.181',-0.440,-0.315
'2:09.183',-0.430,-0.300
'2:09.186',-0.435,-0.325
'2:09.189',-0.440,-0.335
'2:09.192',-0.445,-0.335
'2:09.194',-0.440,-0.330
'2:09.197',-0.425,-0.320
'2:09.200',-0.425,-0.305
'2:09.203',-0.425,-0.315
'2:09.206',-0.435,-0.320
'2:09.208',-0.450,-0.335
'2:09.211',-0.435,-0.315
'2:09.214',-0.430,-0.310
'2:09.217',-0.425,-0.305
'2:09.219',-0.425,-0.320
'2:09.222',-0.440,-0.330
'2:09.225',-0.450,-0.330
'2:09.228',-0.445,-0.325
'2:09.231',-0.430,-0.320
'2:09.233',-0.430,-0.325
'2:09.236',-0.425,-0.315
'2:09.239',-0.435,-0.335
'2:09.242',-0.440,-0.325
'2:09.244',-0.435,-0.320
'2:09.247',-0.435,-0.315
'2:09.250',-0.430,-0.325
'2:09.253',-0.420,-0.325
'2:09.256',-0.440,-0.340
'2:09.258',-0.450,-0.345
'2:09.261',-0.445,-0.325
'2:09.264',-0.435,-0.325
'2:09.267',-0.420,-0.325
'2:09.269',-0.425,-0.335
'2:09.272',-0.430,-0.335
'2:09.275',-0.435,-0.350
'2:09.278',-0.430,-0.350
'2:09.281',-0.425,-0.335
'2:09.283',-0.435,-0.335
'2:09.286',-0.425,-0.345
'2:09.289',-0.415,-0.355
'2:09.292',-0.435,-0.365
'2:09.294',-0.435,-0.360
'2:09.297',-0.425,-0.355
'2:09.300',-0.415,-0.365
'2:09.303',-0.410,-0.370
'2:09.306',-0.425,-0.375
'2:09.308',-0.420,-0.370
'2:09.311',-0.425,-0.375
'2:09.314',-0.415,-0.365
'2:09.317',-0.410,-0.355
'2:09.319',-0.400,-0.360
'2:09.322',-0.420,-0.380
'2:09.325',-0.435,-0.400
'2:09.328',-0.425,-0.400
'2:09.331',-0.420,-0.385
'2:09.333',-0.410,-0.395
'2:09.336',-0.415,-0.405
'2:09.339',-0.425,-0.420
'2:09.342',-0.440,-0.430
'2:09.344',-0.430,-0.425
'2:09.347',-0.420,-0.430
'2:09.350',-0.425,-0.435
'2:09.353',-0.420,-0.440
'2:09.356',-0.415,-0.460
'2:09.358',-0.440,-0.455
'2:09.361',-0.440,-0.445
'2:09.364',-0.435,-0.430
'2:09.367',-0.435,-0.445
'2:09.369',-0.430,-0.440
'2:09.372',-0.435,-0.460
'2:09.375',-0.445,-0.460
'2:09.378',-0.435,-0.450
'2:09.381',-0.430,-0.435
'2:09.383',-0.425,-0.420
'2:09.386',-0.425,-0.410
'2:09.389',-0.425,-0.410
'2:09.392',-0.425,-0.395
'2:09.394',-0.415,-0.380
'2:09.397',-0.405,-0.360
'2:09.400',-0.390,-0.335
'2:09.403',-0.380,-0.335
'2:09.406',-0.380,-0.330
'2:09.408',-0.390,-0.320
'2:09.411',-0.380,-0.295
'2:09.414',-0.360,-0.285
'2:09.417',-0.350,-0.280
'2:09.419',-0.340,-0.280
'2:09.422',-0.345,-0.285
'2:09.425',-0.355,-0.275
'2:09.428',-0.345,-0.250
'2:09.431',-0.335,-0.245
'2:09.433',-0.325,-0.240
'2:09.436',-0.315,-0.245
'2:09.439',-0.320,-0.260
'2:09.442',-0.335,-0.245
'2:09.444',-0.325,-0.245
'2:09.447',-0.310,-0.230
'2:09.450',-0.315,-0.235
'2:09.453',-0.315,-0.240
'2:09.456',-0.330,-0.250
'2:09.458',-0.330,-0.260
'2:09.461',-0.335,-0.245
'2:09.464',-0.325,-0.235
'2:09.467',-0.325,-0.240
'2:09.469',-0.320,-0.245
'2:09.472',-0.320,-0.240
'2:09.475',-0.340,-0.250
'2:09.478',-0.335,-0.255
'2:09.481',-0.335,-0.245
'2:09.483',-0.330,-0.255
'2:09.486',-0.325,-0.250
'2:09.489',-0.340,-0.265
'2:09.492',-0.350,-0.265
'2:09.494',-0.345,-0.250
'2:09.497',-0.335,-0.235
'2:09.500',-0.335,-0.250
'2:09.503',-0.340,-0.255
'2:09.506',-0.345,-0.270
'2:09.508',-0.360,-0.280
'2:09.511',-0.355,-0.255
'2:09.514',-0.340,-0.245
'2:09.517',-0.340,-0.250
'2:09.519',-0.340,-0.265
'2:09.522',-0.360,-0.275
'2:09.525',-0.380,-0.270
'2:09.528',-0.360,-0.275
'2:09.531',-0.350,-0.265
'2:09.533',-0.360,-0.265
'2:09.536',-0.340,-0.270
'2:09.539',-0.355,-0.285
'2:09.542',-0.370,-0.280
'2:09.544',-0.370,-0.280
'2:09.547',-0.355,-0.265
'2:09.550',-0.355,-0.265
'2:09.553',-0.355,-0.285
'2:09.556',-0.370,-0.285
'2:09.558',-0.365,-0.285
'2:09.561',-0.370,-0.285
'2:09.564',-0.370,-0.270
'2:09.567',-0.355,-0.265
'2:09.569',-0.360,-0.270
'2:09.572',-0.360,-0.275
'2:09.575',-0.385,-0.285
'2:09.578',-0.375,-0.285
'2:09.581',-0.375,-0.285
'2:09.583',-0.365,-0.270
'2:09.586',-0.365,-0.275
'2:09.589',-0.370,-0.285
'2:09.592',-0.385,-0.290
'2:09.594',-0.385,-0.280
'2:09.597',-0.375,-0.280
'2:09.600',-0.365,-0.275
'2:09.603',-0.370,-0.285
'2:09.606',-0.370,-0.295
'2:09.608',-0.385,-0.290
'2:09.611',-0.375,-0.285
'2:09.614',-0.370,-0.265
'2:09.617',-0.365,-0.275
'2:09.619',-0.370,-0.290
'2:09.622',-0.370,-0.290
'2:09.625',-0.395,-0.285
'2:09.628',-0.390,-0.275
'2:09.631',-0.385,-0.275
'2:09.633',-0.365,-0.275
'2:09.636',-0.370,-0.275
'2:09.639',-0.375,-0.280
'2:09.642',-0.380,-0.285
'2:09.644',-0.375,-0.280
'2:09.647',-0.370,-0.270
'2:09.650',-0.360,-0.275
'2:09.653',-0.365,-0.275
'2:09.656',-0.390,-0.275
'2:09.658',-0.380,-0.290
'2:09.661',-0.375,-0.260
'2:09.664',-0.370,-0.260
'2:09.667',-0.360,-0.275
'2:09.669',-0.355,-0.280
'2:09.672',-0.365,-0.280
'2:09.675',-0.360,-0.285
'2:09.678',-0.330,-0.270
'2:09.681',-0.315,-0.270
'2:09.683',-0.300,-0.265
'2:09.686',-0.305,-0.265
'2:09.689',-0.310,-0.280
'2:09.692',-0.315,-0.275
'2:09.694',-0.295,-0.260
'2:09.697',-0.285,-0.250
'2:09.700',-0.265,-0.230
'2:09.703',-0.265,-0.240
'2:09.706',-0.270,-0.240
'2:09.708',-0.285,-0.245
'2:09.711',-0.275,-0.235
'2:09.714',-0.275,-0.225
'2:09.717',-0.270,-0.215
'2:09.719',-0.280,-0.230
'2:09.722',-0.295,-0.220
'2:09.725',-0.310,-0.220
'2:09.728',-0.295,-0.215
'2:09.731',-0.295,-0.215
'2:09.733',-0.300,-0.215
'2:09.736',-0.300,-0.210
'2:09.739',-0.315,-0.230
'2:09.742',-0.305,-0.225
'2:09.744',-0.275,-0.215
'2:09.747',-0.255,-0.200
'2:09.750',-0.240,-0.225
'2:09.753',-0.260,-0.235
'2:09.756',-0.290,-0.250
'2:09.758',-0.315,-0.250
'2:09.761',-0.320,-0.255
'2:09.764',-0.325,-0.235
'2:09.767',-0.330,-0.240
'2:09.769',-0.355,-0.245
'2:09.772',-0.365,-0.260
'2:09.775',-0.385,-0.270
'2:09.778',-0.380,-0.260
'2:09.781',-0.390,-0.255
'2:09.783',-0.385,-0.250
'2:09.786',-0.385,-0.260
'2:09.789',-0.395,-0.265
'2:09.792',-0.400,-0.270
'2:09.794',-0.405,-0.260
'2:09.797',-0.400,-0.265
'2:09.800',-0.395,-0.260
'2:09.803',-0.395,-0.265
'2:09.806',-0.405,-0.280
'2:09.808',-0.415,-0.280
'2:09.811',-0.425,-0.280
'2:09.814',-0.420,-0.255
'2:09.817',-0.405,-0.265
'2:09.819',-0.390,-0.275
'2:09.822',-0.410,-0.285
'2:09.825',-0.420,-0.285
'2:09.828',-0.420,-0.285
'2:09.831',-0.415,-0.270
'2:09.833',-0.405,-0.255
'2:09.836',-0.405,-0.270
'2:09.839',-0.415,-0.290
'2:09.842',-0.430,-0.310
'2:09.844',-0.450,-0.330
'2:09.847',-0.475,-0.350
'2:09.850',-0.505,-0.360
'2:09.853',-0.520,-0.385
'2:09.856',-0.520,-0.420
'2:09.858',-0.560,-0.440
'2:09.861',-0.610,-0.400
'2:09.864',-0.640,-0.290
'2:09.867',-0.585,-0.180
'2:09.869',-0.475,-0.065
'2:09.872',-0.340,0.020
'2:09.875',-0.215,0.130
'2:09.878',-0.005,0.255
'2:09.881',0.275,0.375
'2:09.883',0.545,0.480
'2:09.886',0.710,0.495
'2:09.889',0.745,0.335
'2:09.892',0.565,0.000
'2:09.894',0.210,-0.295
'2:09.897',-0.170,-0.365
'2:09.900',-0.445,-0.335
'2:09.903',-0.550,-0.295
'2:09.906',-0.540,-0.310
'2:09.908',-0.495,-0.305
'2:09.911',-0.455,-0.295
'2:09.914',-0.430,-0.285
'2:09.917',-0.430,-0.300
'2:09.919',-0.440,-0.300
'2:09.922',-0.435,-0.315
'2:09.925',-0.455,-0.315
'2:09.928',-0.435,-0.300
'2:09.931',-0.440,-0.300
'2:09.933',-0.435,-0.300
'2:09.936',-0.445,-0.305
'2:09.939',-0.450,-0.310
'2:09.942',-0.460,-0.325
'2:09.944',-0.450,-0.305
'2:09.947',-0.435,-0.300
'2:09.950',-0.430,-0.295
'2:09.953',-0.430,-0.300
'2:09.956',-0.440,-0.315
'2:09.958',-0.435,-0.305
'2:09.961',-0.435,-0.305
'2:09.964',-0.420,-0.295
'2:09.967',-0.420,-0.295
'2:09.969',-0.410,-0.295
'2:09.972',-0.430,-0.305
'2:09.975',-0.440,-0.310
'2:09.978',-0.435,-0.300
'2:09.981',-0.430,-0.290
'2:09.983',-0.425,-0.295
'2:09.986',-0.435,-0.290
'2:09.989',-0.435,-0.305
'2:09.992',-0.450,-0.295
'2:09.994',-0.445,-0.295
'2:09.997',-0.420,-0.285
